time (s)	magX	magY	magZ
7569.602441	-226.470474	149.983047	108.623604
7569.605345	-230.035645	150.918182	111.370552
7569.608678	-233.425476	152.379318	114.175926
7569.612013	-236.873749	154.074234	118.851555
7569.615336	-239.796021	155.710693	123.351845
7569.618671	-244.062515	157.054947	127.033897
7569.622004	-247.569260	158.165405	131.125061
7569.625344	-251.017532	159.626541	135.742249
7569.628673	-254.991837	160.327881	140.300995
7569.632008	-258.498535	161.613678	145.385742
7569.635363	-262.648163	162.607239	149.944489
7569.638677	-267.206909	163.600815	155.847473
7569.642006	-271.414978	164.711273	161.224426
7569.645343	-275.506134	166.289307	166.601410
7569.648671	-279.655762	167.925781	173.147278
7569.652006	-284.389862	168.802460	178.991821
7569.655394	-288.773254	170.205139	186.355927
7569.658667	-293.565765	170.731155	193.077148
7569.662004	-298.650513	171.900055	199.681488
7569.665338	-303.852142	173.010513	208.156036
7569.668671	-308.644684	173.536530	215.812378
7569.672004	-313.320312	175.056107	224.579193
7569.675334	-317.937469	175.523666	234.514893
7569.678697	-323.898895	176.809464	243.924591
7569.681996	-328.457642	177.043243	253.860321
7569.685330	-334.360626	177.452362	264.848053
7569.688668	-339.503815	178.562836	274.316193
7569.691998	-345.114563	177.744598	286.239014
7569.695336	-350.608429	178.270599	297.226776
7569.698664	-355.810059	177.978378	308.974274
7569.701999	-361.303925	177.627701	321.773804
7569.705335	-366.330200	177.569260	333.404449
7569.708684	-371.414978	177.101700	346.379303
7569.712003	-376.265930	175.932800	359.354187
7569.715333	-380.649353	174.705444	372.971954
7569.718667	-385.675629	173.361191	386.239014
7569.722019	-389.883698	171.490952	399.915253
7569.725337	-394.208679	169.503799	414.000580
7569.728666	-398.066040	167.984222	429.547058
7569.731992	-403.092346	164.769730	443.983063
7569.735327	-407.534210	161.789017	459.237274
7569.738664	-410.807129	159.392761	474.257721
7569.741993	-414.722961	155.827591	489.219757
7569.745327	-417.820587	152.145538	504.240204
7569.748660	-420.509033	148.112808	519.611389
7569.752025	-423.606689	144.196960	534.865601
7569.755325	-426.002930	139.462891	551.054932
7569.758657	-428.866760	133.618362	567.069031
7569.761989	-430.795441	128.650497	582.966125
7569.765328	-432.490356	123.682648	599.155457
7569.768659	-433.717712	117.487427	616.630676
7569.771999	-435.003510	110.473991	633.229126
7569.775325	-435.646423	103.051430	650.236694
7569.778660	-435.880188	95.511978	668.179443
7569.782013	-435.471100	87.504974	684.544128
7569.785324	-435.354187	78.855057	703.188232
7569.788658	-433.717712	70.029808	721.014038
7569.791992	-431.438354	60.737000	740.125671
7569.795330	-429.568085	50.625946	758.185242
7569.798652	-426.879578	39.988895	775.894226
7569.801985	-422.963745	29.001171	794.538269
7569.805324	-419.047913	17.078316	813.825256
7569.808657	-414.255432	5.856809	830.832947
7569.811990	-408.761536	-6.241379	850.762695
7569.815317	-401.514343	-20.618935	868.354736
7569.818656	-395.202240	-34.236706	886.239075
7569.821980	-386.902985	-47.562244	903.714233
7569.825337	-378.369965	-61.530682	920.195801
7569.828650	-368.317352	-75.732903	937.495667
7569.831984	-358.615448	-89.818237	951.990112
7569.835317	-347.277039	-104.604904	966.835144
7569.838651	-335.646423	-119.333130	979.751648
7569.841988	-323.840454	-134.002930	993.077087
7569.845319	-311.216248	-148.789597	1004.240295
7569.848654	-298.299835	-163.868500	1015.403381
7569.851979	-283.454712	-178.888947	1023.994812
7569.855317	-269.778503	-193.324951	1032.644653
7569.858700	-254.933365	-207.410278	1040.008667
7569.861987	-239.679123	-221.320267	1045.677979
7569.865316	-225.886017	-234.645813	1048.541748
7569.868685	-210.924011	-247.796036	1052.866699
7569.871981	-195.611343	-260.069550	1054.269409
7569.875318	-180.415543	-272.693756	1055.379883
7569.878649	-164.343063	-283.739929	1054.678589
7569.881991	-149.556396	-295.428986	1052.691406
7569.885317	-133.717712	-306.182922	1049.710693
7569.888648	-118.580360	-317.287567	1044.918091
7569.891986	-103.559914	-327.632385	1040.943848
7569.895314	-88.422562	-336.983643	1035.508423
7569.898645	-73.869667	-345.516663	1027.442993
7569.901981	-58.381645	-353.465210	1017.974915
7569.905308	-44.354767	-361.881348	1009.792542
7569.908644	-29.684980	-368.953247	999.915222
7569.911991	-15.599649	-376.434265	988.226135
7569.915304	-2.215663	-382.863220	976.478699
7569.918643	11.577440	-388.590881	963.445312
7569.921980	25.195208	-393.734070	948.132690
7569.925318	38.053185	-398.877258	933.521301
7569.928645	51.320282	-402.968414	917.974915
7569.931972	63.418465	-407.351837	901.902466
7569.935313	75.867325	-410.215668	884.485657
7569.938640	87.556396	-413.313293	866.718323
7569.941976	98.427238	-415.826416	849.009399
7569.945308	109.882523	-417.755127	830.365356
7569.948643	120.636459	-419.216248	810.844543
7569.951977	130.747513	-419.859161	791.616028
7569.955331	140.683228	-420.560486	771.744568
7569.958639	150.151382	-420.443573	751.873169
7569.961976	159.093521	-420.326721	731.651123
7569.965305	167.684998	-419.333130	710.493896
7569.968644	174.815323	-417.813538	689.512024
7569.971976	182.296326	-415.592621	670.400391
7569.975302	188.842209	-413.663940	649.710693
7569.978640	195.388092	-410.917023	629.780884
7569.981969	200.823502	-408.929871	609.675659
7569.985310	205.908249	-405.481598	590.739380
7569.988635	209.940979	-401.799530	570.692566
7569.992002	214.616608	-398.175934	551.639404
7569.995302	217.831100	-394.084747	532.469299
7569.998658	221.045578	-390.227356	515.520203
7570.001967	223.734085	-386.311493	497.635895
7570.005300	226.481003	-382.161896	480.803619
7570.008635	228.175919	-377.603149	464.263580
7570.011972	229.870834	-373.278198	448.658691
7570.015305	230.805969	-368.076569	432.761536
7570.018633	231.916428	-362.816467	416.455292
7570.021963	232.676208	-358.666870	402.720612
7570.025302	233.260681	-353.699005	389.687317
7570.028632	233.728241	-349.432495	375.777313
7570.031966	233.202240	-344.113953	362.685547
7570.035300	232.910004	-340.139709	350.178253
7570.038637	231.916428	-335.347168	338.664520
7570.041978	231.916428	-330.087097	327.793671
7570.045299	230.513733	-325.177673	316.396820
7570.048635	230.104630	-321.028076	305.701324
7570.051960	228.877274	-316.469299	294.538269
7570.055298	227.533020	-311.910583	284.251892
7570.058669	226.597900	-307.468719	275.426636
7570.063228	224.493881	-297.883698	255.029236
7570.066603	222.915833	-293.558746	245.970184
7570.069977	221.688477	-289.000000	237.261810
7570.073345	219.233795	-284.441254	228.378143
7570.076672	217.947983	-279.531860	220.663361
7570.079631	215.785522	-275.031555	211.312103
7570.083228	213.739914	-269.829926	203.246643
7570.086606	212.045013	-266.147888	195.940979
7570.090008	209.882523	-261.355347	188.401520
7570.092847	207.778503	-256.971954	181.797211
7570.096212	205.849792	-252.120987	173.673309
7570.099557	203.862656	-248.555817	167.594971
7570.102908	202.167740	-244.113968	160.406189
7570.106136	200.297501	-239.789001	153.042084
7570.109476	198.251907	-235.347168	146.262421
7570.112806	196.089432	-231.372879	140.417877
7570.116158	193.517838	-226.989487	134.982452
7570.119496	191.180023	-222.489182	129.605499
7570.122937	189.485107	-219.099350	124.170067
7570.126208	186.913513	-215.767975	118.559319
7570.129502	184.926361	-212.144363	113.299248
7570.132811	182.413223	-208.053177	109.208061
7570.136141	180.250732	-204.488022	105.000008
7570.139495	178.555817	-201.857986	100.733482
7570.142846	177.445358	-198.234360	97.869667
7570.146253	174.698425	-195.019867	92.784920
7570.149553	172.477509	-192.448273	88.985970
7570.152887	170.957932	-189.000000	85.537697
7570.156131	169.321457	-186.253067	82.907661
7570.159465	167.801880	-183.506134	80.160713
7570.162807	166.282288	-181.168320	77.238457
7570.166168	163.827591	-178.772064	74.082405
7570.169491	162.775574	-175.791336	72.562836
7570.172438	160.087097	-173.219742	70.341904
7570.175737	159.268845	-171.875504	67.478081
7570.179068	157.983063	-169.011688	64.672707
7570.182371	156.814148	-167.199875	63.153130
7570.185716	155.353012	-165.212738	60.756866
7570.189036	154.125656	-162.758041	59.821747
7570.192366	152.547638	-161.355347	57.659264
7570.195712	151.261841	-158.608414	56.139687
7570.199041	150.268280	-156.855057	54.269424
7570.202368	148.690247	-155.101685	52.691406
7570.205706	147.521332	-153.173004	52.165398
7570.209062	146.761551	-150.952072	50.178261
7570.212399	145.300415	-149.666275	47.898895
7570.215751	143.780838	-148.322037	46.788422
7570.219045	142.378143	-146.334900	44.742844
7570.222368	141.735245	-143.880188	43.866158
7570.225706	140.858566	-142.535950	42.521919
7570.229045	139.631210	-140.841034	41.236122
7570.232363	138.228531	-139.496796	38.839859
7570.235698	137.176498	-137.743423	36.794273
7570.239039	136.182938	-135.814728	36.326706
7570.242390	134.897141	-134.645813	35.157799
7570.245753	134.020462	-133.360031	33.638222
7570.249091	133.026886	-131.139099	31.008186
7570.252023	131.273529	-129.444183	30.306839
7570.255706	129.987732	-128.216843	28.728813
7570.259053	128.994156	-126.755699	27.793686
7570.262379	128.468155	-125.411461	26.683228
7570.265275	128.117477	-123.658096	25.280533
7570.268606	126.773224	-122.606079	24.871422
7570.271941	126.013443	-121.554062	24.053185
7570.275274	125.019875	-120.911163	22.592049
7570.278610	123.967850	-120.151375	21.656929
7570.281946	122.915840	-118.164223	20.838692
7570.285269	122.857391	-116.995316	20.312683
7570.288611	122.039162	-115.884857	19.669785
7570.291946	121.513153	-115.534195	19.319115
7570.295288	121.396255	-114.540619	19.494453
7570.298606	121.045586	-113.663940	18.617767
7570.301939	120.636459	-113.079483	17.916420
7570.305277	119.935120	-112.319695	18.091759
7570.308602	120.110466	-112.027466	17.448860
7570.311943	119.935120	-111.852127	17.507301
7570.315319	119.467552	-110.917007	16.981300
7570.318601	119.409119	-109.923439	17.565750
7570.321934	119.292221	-109.923439	17.039742
7570.325309	119.233772	-110.040329	16.279953
7570.328599	119.701340	-109.163643	16.396843
7570.331937	119.642899	-109.105202	15.753944
7570.335271	119.233772	-108.286964	16.221504
7570.338615	119.350670	-107.877846	16.396843
7570.341937	119.642899	-107.760956	16.221504
7570.345266	119.175339	-107.118057	16.396843
7570.348600	119.292221	-107.293396	16.221504
7570.351936	118.883110	-106.942719	16.163063
7570.355268	118.649330	-106.650497	16.338394
7570.358599	119.116890	-106.358269	16.338394
7570.361935	118.941559	-105.423141	16.630623
7570.365265	119.058441	-105.364700	16.455284
7570.368617	118.649330	-104.721802	16.747520
7570.371934	118.707779	-104.604904	15.637054
7570.375267	118.999992	-104.546463	15.870834
7570.378597	119.175339	-104.137344	14.994156
7570.381931	119.526001	-103.962013	15.111046
7570.385279	119.818237	-103.552895	14.526596
7570.388613	120.168900	-103.552895	14.643486
7570.391933	120.402679	-103.669785	14.935707
7570.395263	120.285797	-103.085327	14.292816
7570.398633	120.811806	-102.559319	14.000580
7570.401929	120.227348	-102.267097	14.351257
7570.405265	120.870247	-102.267097	13.708359
7570.408594	121.279373	-102.325539	13.708359
7570.411945	121.513153	-101.974869	14.409706
7570.415256	122.331383	-102.267097	14.409706
7570.418588	122.389832	-102.559319	14.351257
7570.421926	122.798943	-102.617767	15.111046
7570.425268	123.383400	-102.793098	14.701927
7570.428590	124.084747	-102.559319	14.994156
7570.431923	124.026299	-102.617767	16.163063
7570.435261	125.136757	-102.968437	15.344826
7570.438597	125.838097	-103.026878	16.338394
7570.441949	126.597893	-103.494446	16.981300
7570.445253	127.766800	-103.436005	17.507301
7570.448589	128.409698	-103.903564	17.390411
7570.451929	128.877258	-104.312683	18.500877
7570.455259	129.461716	-104.663353	19.319115
7570.458595	131.448868	-105.364700	19.143776
7570.461947	133.085342	-105.715370	20.488022
7570.465260	134.371124	-106.358269	21.072472
7570.468588	135.832260	-107.059608	21.890709
7570.471916	136.533615	-107.059608	23.702515
7570.475256	137.585617	-107.994736	23.819405
7570.478592	139.046753	-108.696083	24.228523
7570.481924	140.332565	-109.455872	25.222092
7570.485281	141.150787	-109.923439	26.215660
7570.488590	142.845703	-110.274109	27.559906
7570.491916	144.131516	-111.443016	28.845703
7570.495255	145.475754	-111.852127	29.488609
7570.498585	147.170670	-111.793686	29.956169
7570.501917	148.398010	-112.845703	31.300407
7570.505253	149.333145	-113.313263	32.235535
7570.508586	151.144958	-113.956161	33.053772
7570.511916	152.606094	-114.131508	34.924019
7570.515247	154.417892	-115.066635	35.566917
7570.518583	155.995911	-116.352425	36.852715
7570.521920	157.807709	-116.819984	37.846291
7570.525247	159.151962	-117.112213	38.138512
7570.528588	161.489777	-117.638229	40.476326
7570.531949	163.067795	-118.631790	40.417885
7570.535248	164.645828	-119.450027	41.469902
7570.538582	165.990067	-119.625359	42.521919
7570.541917	168.094101	-120.443604	44.158386
7570.545242	170.139694	-121.203384	45.268845
7570.548583	171.951492	-122.664520	46.905319
7570.551911	173.704865	-123.307426	48.366455
7570.555248	176.334900	-124.184105	49.593803
7570.558578	178.380478	-124.593216	52.399178
7570.561920	180.542969	-125.937454	53.743431
7570.565280	183.231445	-127.047928	55.496780
7570.568583	185.277039	-127.983055	58.185272
7570.571919	187.965515	-129.151962	59.295731
7570.575246	191.063126	-130.262421	62.218002
7570.578576	193.985397	-131.197540	64.497368
7570.581911	197.199890	-133.418472	68.120987
7570.585249	199.654602	-134.470490	69.932793
7570.588572	202.752197	-134.996490	73.439507
7570.591907	205.908249	-136.983627	77.180016
7570.595247	208.655167	-138.327881	79.225594
7570.598577	212.220337	-139.146118	83.082985
7570.601907	216.194626	-140.490372	87.583290
7570.605245	219.467560	-142.068390	91.265343
7570.608610	222.740509	-143.237289	95.531853
7570.611905	226.656342	-145.224426	99.739922
7570.615250	230.572189	-146.393326	103.421974
7570.618568	233.962006	-148.088242	107.630043
7570.621908	238.403870	-148.964920	112.071892
7570.625240	241.618362	-150.542953	117.331963
7570.628577	246.177094	-152.004089	122.182930
7570.631911	250.326721	-152.939224	127.384575
7570.635246	253.833435	-154.108124	132.235535
7570.638574	258.041473	-154.809479	136.443604
7570.641903	262.074219	-155.861481	142.580353
7570.645240	266.282288	-157.147278	146.613098
7570.648567	270.841034	-158.433075	152.749847
7570.651928	274.698395	-158.959091	159.178833
7570.655236	279.666260	-160.537109	164.731140
7570.658570	283.757446	-161.472229	171.686157
7570.661908	287.907043	-162.641144	176.829346
7570.665234	292.991821	-163.751617	182.966095
7570.668572	297.141449	-164.452957	189.453522
7570.671901	301.349487	-165.797195	196.233215
7570.675247	305.966675	-165.972534	202.194611
7570.678567	310.934509	-166.673874	209.675629
7570.681903	316.253082	-168.193451	217.215057
7570.685233	321.220917	-168.719467	224.812958
7570.688564	325.721191	-169.245468	232.703094
7570.691902	330.864380	-169.946808	241.294556
7570.695265	336.007599	-170.531265	250.178253
7570.698568	340.800110	-171.407944	258.302155
7570.701897	346.410858	-171.641724	268.237885
7570.705232	351.378693	-172.576859	278.056702
7570.709911	361.665100	-172.927536	299.155457
7570.713249	367.042053	-172.869080	311.078308
7570.716586	373.295715	-173.219742	322.416718
7570.719910	378.380463	-172.459961	335.099335
7570.723227	384.166565	-172.343079	348.834015
7570.726534	388.842194	-171.583282	361.165985
7570.729910	394.277588	-170.881927	375.017517
7570.732785	399.654572	-170.239044	389.862640
7570.736168	405.031555	-168.602570	403.305084
7570.739517	409.414978	-166.498535	417.390411
7570.742745	414.733459	-165.504959	435.157806
7570.746075	419.935120	-163.693161	450.704254
7570.749415	424.376953	-161.238449	466.484528
7570.752762	428.117462	-158.900635	483.024506
7570.756098	432.442444	-155.861481	499.097015
7570.759488	436.708923	-153.056107	515.286377
7570.762827	439.689636	-149.374054	532.001770
7570.766139	443.371674	-145.633545	548.892517
7570.769420	447.112183	-141.133255	564.322021
7570.772739	448.924011	-136.749847	581.563416
7570.776093	451.028076	-132.658691	598.863281
7570.779454	453.132050	-127.515488	615.987732
7570.782844	455.002319	-121.378731	632.586243
7570.786148	455.820557	-115.592628	649.067810
7570.789482	456.405029	-109.806549	665.198792
7570.792753	457.106354	-102.968437	681.621887
7570.796067	457.281677	-96.247223	697.811218
7570.799402	456.463470	-89.584457	713.883728
7570.802760	456.171234	-82.395676	729.430176
7570.806107	454.184113	-74.154884	745.327332
7570.809001	452.664520	-66.673874	760.756897
7570.812341	449.566895	-58.257744	776.128052
7570.815691	447.229095	-50.309174	790.037964
7570.818985	443.196350	-40.490356	803.889526
7570.822317	438.754517	-31.898888	820.195801
7570.825663	435.072479	-22.313850	833.404480
7570.828979	429.403259	-11.443016	846.788452
7570.832311	423.208038	-0.981297	859.880188
7570.835645	416.545288	9.305085	871.803040
7570.838978	409.239594	20.117477	884.661072
7570.842356	402.109283	31.748100	896.466980
7570.845668	393.400940	42.969612	908.565186
7570.849004	384.984772	55.593803	918.559326
7570.852305	374.698395	67.808884	927.969055
7570.855646	363.710693	79.790184	936.735901
7570.858977	353.248962	92.998833	945.210388
7570.862307	340.975464	106.791939	951.405701
7570.865648	329.052582	119.883698	956.431946
7570.869004	316.311493	133.209229	961.692017
7570.872308	303.044434	146.768555	966.776794
7570.875642	288.725311	160.386322	969.231445
7570.879000	274.990631	174.471649	970.692566
7570.882332	259.853302	188.556992	971.627747
7570.885690	245.534195	202.700760	972.212219
7570.888981	230.572189	215.675613	969.173035
7570.891882	215.317963	229.001175	968.530151
7570.895220	200.005264	241.976044	964.263611
7570.898582	184.634140	255.360046	959.588013
7570.901886	169.321457	267.575104	954.035706
7570.905215	153.599655	280.491516	947.606689
7570.908552	138.637634	292.297485	940.768555
7570.911891	122.740509	303.752777	932.936890
7570.915215	107.603157	314.448303	924.637634
7570.918540	92.933365	325.026886	914.935730
7570.921880	78.789597	335.021057	904.123352
7570.925212	64.470482	344.430725	892.668030
7570.928544	50.969604	354.249542	882.790833
7570.931874	37.585625	362.431915	869.932800
7570.935205	24.201637	370.088257	857.367065
7570.938543	9.765635	376.867920	844.976685
7570.941892	-2.040327	383.764465	832.177124
7570.945215	-13.729399	389.842804	818.617798
7570.948553	-25.944475	395.628876	806.987122
7570.951880	-37.049095	400.304504	792.668030
7570.955206	-48.153709	405.155457	778.232056
7570.958537	-58.966103	409.480438	764.614258
7570.961877	-69.427826	412.987152	750.821167
7570.965203	-79.363533	415.734070	735.391602
7570.968541	-89.240799	418.773224	721.072510
7570.971898	-98.124489	420.117493	705.759827
7570.975202	-107.534195	422.630646	690.856201
7570.978536	-116.593224	423.390381	676.537109
7570.981869	-124.658684	424.033325	661.341370
7570.985219	-133.542358	424.442444	647.431335
7570.988535	-140.672699	424.500885	632.177124
7570.991872	-147.510803	424.383972	616.864441
7570.995205	-154.641144	424.150177	601.434875
7570.998535	-160.894791	422.455261	586.589722
7571.001867	-168.025131	421.461731	571.101746
7571.005202	-173.811218	419.299225	556.431946
7571.008535	-179.246628	417.487427	540.710144
7571.011915	-184.214493	415.500305	525.631226
7571.015233	-188.831665	411.876678	511.370514
7571.018537	-192.689072	409.421967	496.583893
7571.021862	-197.364700	406.032135	481.797211
7571.025200	-199.819397	402.642303	466.835175
7571.028544	-202.858551	399.369385	453.451172
