time (s)	magX	magY	magZ
4445.564445	-137.341309	129.176498	48.658676
4445.567779	-138.919327	130.403854	50.002930
4445.571111	-139.971359	131.280533	50.645821
4445.574442	-141.023361	131.748093	51.814728
4445.577779	-142.250717	132.858566	53.100517
4445.581105	-143.887192	134.144363	53.801865
4445.584468	-145.056091	135.430161	56.490356
4445.587777	-145.465225	136.657516	57.893044
4445.591106	-147.510803	137.884857	59.003502
4445.594459	-149.088821	138.410873	60.464638
4445.597808	-150.199280	140.222672	62.568672
4445.601112	-152.127991	142.209824	63.796028
4445.604437	-153.063110	143.144943	66.309174
4445.607774	-154.816483	144.080078	68.471657
4445.611108	-155.751602	146.359436	69.231445
4445.614436	-158.264755	147.937469	71.569260
4445.617773	-159.375214	150.275284	73.147278
4445.621102	-160.602570	151.502640	75.835777
4445.624437	-162.005249	153.489777	78.056694
4445.627767	-164.343063	155.360016	80.452950
4445.631104	-165.453537	156.938049	82.323204
4445.634438	-168.083572	158.983643	85.128578
4445.637771	-169.077133	161.555237	87.817070
4445.641113	-171.181168	163.483932	90.096428
4445.644439	-172.876083	165.938629	92.668022
4445.647769	-174.629456	167.750427	95.122734
4445.651105	-176.616592	169.503799	98.044991
4445.654436	-178.369949	172.192291	101.668617
4445.657765	-179.597305	174.997665	104.415535
4445.661097	-182.052002	177.101700	107.805382
4445.664438	-184.097595	179.556396	111.779655
4445.667792	-185.383392	181.777328	114.877266
4445.671134	-187.604309	184.348923	118.559319
4445.674437	-189.474564	186.745178	121.890709
4445.677766	-192.104599	189.667450	125.397423
4445.681097	-193.098190	191.946823	129.371704
4445.684447	-195.962006	194.050842	133.112213
4445.687762	-198.475143	197.090012	137.144928
4445.691092	-200.929855	198.726471	142.171234
4445.694437	-203.033875	201.590302	146.963776
4445.697767	-205.488586	203.869659	151.230255
4445.701097	-208.060196	206.908829	156.490356
4445.704430	-210.807114	208.895966	161.516663
4445.707763	-213.261826	211.701355	167.068970
4445.711099	-215.950333	214.331390	172.387482
4445.714425	-218.229675	216.552307	178.816498
4445.717765	-221.736404	219.591476	184.368774
4445.721100	-223.957321	222.864410	189.745758
4445.724427	-227.054932	225.260666	196.350067
4445.727761	-229.626511	227.247818	203.772644
4445.731113	-232.548782	230.228516	211.428986
4445.734433	-235.061935	233.267700	217.741089
4445.737764	-237.516647	235.897705	225.280518
4445.741092	-240.088257	238.586212	233.638214
4445.744425	-242.601395	241.683823	241.878998
4445.747765	-245.932785	244.781433	250.236694
4445.752391	-251.192856	251.327301	268.179413
4445.755782	-252.946213	254.074219	276.420197
4445.759128	-255.751602	256.587372	286.414368
4445.762470	-257.855652	260.094086	296.291626
4445.765368	-259.959656	262.841034	306.227356
4445.769030	-261.420807	265.997070	316.922852
4445.772414	-263.700195	269.211578	327.501465
4445.775348	-265.219757	272.075409	338.606079
4445.778626	-266.914673	274.179443	350.236664
4445.782017	-268.142029	277.277008	361.516632
4445.785361	-269.895386	280.140869	373.147278
4445.788676	-270.947418	282.478668	385.654572
4445.791938	-272.233185	284.173584	396.934540
4445.795290	-272.759216	287.446533	409.441833
4445.798603	-274.220337	288.440094	422.592041
4445.802012	-274.571014	291.011688	436.326721
4445.805288	-274.980133	292.531281	449.360016
4445.808678	-275.272369	293.817078	463.036224
4445.812013	-275.330811	295.161285	476.303314
4445.815296	-275.506134	296.213318	490.505524
4445.818594	-275.155457	296.622437	505.350677
4445.821932	-274.629456	296.447113	520.488037
4445.825294	-273.811249	296.797791	535.450012
4445.828627	-273.577454	295.745758	551.873230
4445.832038	-272.116333	294.927521	566.835205
4445.835388	-271.824097	293.349518	583.083008
4445.838678	-269.778503	291.654602	599.272400
4445.841929	-268.083588	289.433685	615.812378
4445.845304	-265.862640	286.862061	633.229126
4445.848598	-263.174164	284.056702	650.178284
4445.851949	-260.193451	279.614868	666.426086
4445.855281	-256.569855	275.874329	683.901245
4445.858696	-252.244888	270.731140	701.084167
4445.862026	-248.387497	266.113983	718.442444
4445.865265	-243.419632	261.204559	736.443604
4445.868617	-238.627106	254.892487	754.210999
4445.871515	-232.315018	248.872589	771.160156
4445.874845	-226.236710	242.151382	789.102905
4445.878179	-219.398605	234.436584	806.461182
4445.881505	-211.625366	226.897156	823.118103
4445.884853	-203.793671	219.240784	840.710144
4445.888215	-195.085312	211.116882	856.665771
4445.891533	-185.032715	202.466965	872.679749
4445.894846	-175.798355	193.349503	888.810669
4445.898162	-165.453537	184.056686	904.064880
4445.901520	-154.290466	173.945648	918.384033
4445.904825	-143.711853	163.893051	931.943359
4445.908170	-131.672119	153.781998	945.268860
4445.911495	-119.398598	143.261841	958.009949
4445.914832	-107.125084	131.981873	969.114563
4445.918168	-94.033310	120.760376	980.335999
4445.921519	-80.941559	109.305084	989.161316
4445.924859	-67.674461	96.973114	999.447693
4445.928256	-54.348923	85.400940	1007.805359
4445.931538	-40.029808	73.127411	1014.935730
4445.934840	-26.704264	61.029221	1021.481628
4445.938165	-13.554062	48.638805	1028.553467
4445.941496	0.648159	36.014610	1032.469238
4445.944855	15.317944	23.331970	1036.092896
4445.948166	28.935711	10.532437	1038.956787
4445.951498	41.793686	-1.331969	1039.775024
4445.954862	55.820572	-16.177090	1041.352905
4445.958184	68.035652	-28.684395	1039.541138
4445.961069	81.302742	-41.133255	1038.664551
4445.964405	94.511398	-54.751022	1036.326660
4445.967816	106.901810	-67.433662	1032.352295
4445.971072	119.642899	-80.350082	1027.852051
4445.974437	131.448868	-93.208061	1022.475159
4445.977735	144.540634	-105.656921	1014.877258
4445.981069	155.762131	-116.995316	1007.104065
4445.984402	166.925201	-128.625946	998.629456
4445.987750	178.146698	-140.607254	989.278137
4445.991065	188.900650	-151.419632	978.874939
4445.994401	199.420822	-162.582703	967.010559
4445.997744	209.473419	-173.219742	953.743408
4446.001065	218.649338	-182.278778	940.885498
4446.004400	228.234375	-192.214493	927.735291
4446.007736	237.001175	-200.805954	912.071960
4446.011068	245.300400	-208.929871	895.298035
4446.014401	252.781418	-216.118637	879.517883
4446.017744	259.736420	-222.898315	862.334900
4446.021062	266.925171	-229.677963	845.619568
4446.024398	273.821747	-235.814728	827.735291
4446.027733	279.490936	-241.600815	810.786133
4446.031117	285.218567	-245.867325	792.375793
4446.034397	290.595551	-250.601410	773.205688
4446.037732	295.504944	-254.517242	755.905945
4446.041065	299.537689	-257.673279	737.963196
4446.044397	303.044434	-260.478668	719.319153
4446.047724	306.668030	-263.342499	700.791931
4446.051060	309.473389	-265.446533	683.141479
4446.054395	312.220337	-267.316772	664.438965
4446.057729	314.499695	-269.011688	647.372925
4446.061076	315.434814	-269.771484	629.196411
4446.064396	317.188202	-270.881927	612.597900
4446.067723	317.772644	-271.875519	595.824097
4446.071062	318.064850	-272.167725	578.758057
4446.074395	317.831085	-272.226196	561.516663
4446.077720	317.714203	-272.109283	544.918213
4446.081060	317.246643	-272.459961	529.196411
4446.084390	316.194611	-272.284637	513.766846
4446.087725	315.493286	-271.641724	497.928131
4446.091060	313.506134	-270.823486	483.024506
4446.094393	310.700745	-270.531281	467.711823
4446.097788	309.531830	-269.946808	452.925171
4446.101060	307.661591	-268.719452	439.132080
4446.104410	305.791321	-267.842804	424.228485
4446.107726	302.810638	-266.498535	410.026276
4446.111055	299.654572	-265.621857	396.876068
4446.114387	296.907654	-263.810059	383.901245
4446.117724	293.868500	-262.348907	370.634094
4446.121059	291.472229	-259.894226	358.360596
4446.124387	287.790192	-258.900635	345.619507
4446.127722	284.517212	-256.913513	333.345978
4446.131049	281.302734	-254.867905	322.825836
4446.134385	278.263580	-252.880768	311.195221
4446.137718	274.172394	-250.718307	300.265900
4446.141066	271.893036	-247.737564	289.336639
4446.144386	267.743439	-245.925781	278.407349
4446.147717	264.295135	-243.471069	268.004089
4446.151052	261.022186	-241.016357	258.360596
4446.154386	258.041473	-237.860321	249.652252
4446.157717	254.593231	-235.230270	240.768555
4446.161057	251.904739	-232.132675	231.943298
4446.164390	248.690247	-229.619522	223.001160
4446.167722	245.592636	-226.697250	215.227936
4446.171052	242.319702	-224.067200	206.636444
4446.174385	239.397430	-220.969604	199.681488
4446.177720	235.481598	-217.813553	192.317352
4446.181049	232.617783	-215.358856	185.888367
4446.184402	229.812408	-212.436584	180.160706
4446.187711	226.948563	-209.864990	173.965515
4446.191051	224.435425	-206.825836	167.770325
4446.194383	221.630051	-204.838684	161.341309
4446.197718	218.473999	-202.033310	156.315033
4446.201046	215.376389	-199.403275	151.814728
4446.204378	213.097015	-197.007004	146.788422
4446.207714	209.999420	-194.435410	141.528351
4446.211044	206.901825	-192.156052	137.554077
4446.214383	204.447113	-189.818237	133.462891
4446.217713	201.933960	-188.123322	129.371704
4446.221047	199.829926	-185.843948	125.338982
4446.224375	196.966110	-183.447693	120.838692
4446.227713	194.628296	-181.518997	116.513741
4446.231040	191.939804	-179.531860	113.649910
4446.234412	189.543549	-177.661606	109.909416
4446.237722	186.621277	-175.323776	106.461143
4446.241041	184.225021	-173.862656	103.129753
4446.244413	182.588547	-171.875504	99.856819
4446.247710	179.724731	-170.881927	96.583870
4446.251038	177.036240	-168.368790	93.778496
4446.254379	175.049103	-167.375214	90.739326
4446.257737	172.769730	-165.271179	87.232613
4446.261043	170.782578	-163.284042	84.427238
4446.264370	168.035660	-162.056686	81.621849
4446.267713	165.697845	-159.718872	79.517830
4446.271045	164.178253	-158.316193	77.647575
4446.274375	161.840439	-156.562820	75.017525
4446.277708	159.736420	-154.926361	71.803040
4446.281034	157.866165	-153.815903	69.523674
4446.284368	156.112808	-151.594971	67.887207
4446.287725	154.125656	-150.484512	64.789597
4446.291039	152.839874	-148.438934	62.568672
4446.294375	150.969620	-146.919342	60.873756
4446.297702	149.216248	-145.750443	59.938629
4446.301044	147.755112	-143.938629	57.074814
4446.304365	146.177094	-142.535950	55.672127
4446.307707	145.125076	-140.665695	54.269424
4446.311085	143.839279	-139.672119	52.106956
4446.314374	142.085922	-138.386322	51.347168
4446.317704	140.858566	-137.392761	49.710701
4446.321035	139.397430	-136.223846	48.600243
4446.324369	138.345413	-135.230286	46.613091
4446.327701	137.527176	-134.061371	44.918175
4446.331072	136.007599	-132.950912	44.801285
4446.334364	135.072479	-131.197540	43.515488
4446.337702	133.845123	-130.729980	42.989479
4446.341030	133.319122	-130.145523	42.054359
4446.344379	132.676208	-129.093521	41.002342
4446.347698	131.039749	-128.158386	39.950325
4446.351029	130.572174	-127.398598	39.015198
4446.354368	129.929291	-126.931030	38.255409
4446.357694	128.760376	-125.820572	38.372299
4446.361035	127.825249	-126.171242	36.092926
4446.364361	127.299240	-124.826996	35.566917
4446.367695	126.247231	-124.651665	35.274689
4446.371034	125.370537	-123.891876	34.339569
4446.374377	124.669197	-123.716537	34.514908
4446.377690	123.734070	-122.664520	33.696671
4446.381037	123.208069	-122.547638	32.410873
4446.384358	122.740509	-121.904724	32.586205
4446.387693	121.980713	-121.904724	31.475746
4446.391031	121.337807	-120.735817	31.826416
4446.394359	121.045586	-120.618935	31.241966
4446.397699	120.052017	-120.092926	29.722389
4446.401030	119.642899	-119.566910	29.722389
4446.404361	118.473991	-119.274696	28.845703
4446.407694	117.655754	-118.631790	28.670372
4446.411062	117.421974	-119.040916	28.319702
4446.414362	116.603745	-117.872009	26.858566
4446.417699	117.129745	-117.229103	27.267677
4446.421026	115.960838	-117.053764	27.443016
4446.424363	115.960838	-117.170662	26.566330
4446.427691	115.259491	-116.703102	26.624779
4446.431026	115.610168	-115.943306	25.338982
4446.434358	115.610168	-115.709526	25.397423
4446.437691	115.142609	-115.767975	26.040329
4446.441023	115.259491	-115.475746	25.923439
4446.445766	114.733490	-115.008186	25.689659
4446.449052	114.090584	-115.241966	25.105202
4446.452388	113.856804	-114.949738	25.105202
4446.455790	114.149033	-115.767975	25.046753
4446.459077	114.675041	-115.534195	24.345413
4446.461986	114.324364	-114.891289	24.988312
4446.465291	114.090584	-115.241966	25.280533
4446.468617	115.084160	-115.417297	24.812973
4446.472294	114.616600	-115.651077	24.754532
4446.475212	114.967278	-115.943306	25.280533
4446.478532	115.142609	-116.352425	26.215660
4446.481918	115.668617	-116.352425	26.157219
4446.485285	115.902397	-116.819984	26.215660
4446.488691	116.428398	-117.229103	26.917007
4446.491950	116.895958	-117.404442	26.917007
4446.495199	116.779076	-117.112213	26.800117
4446.498577	117.071304	-118.047340	27.676796
4446.501869	117.480423	-118.982468	28.261253
4446.505238	118.298653	-119.391579	29.021042
4446.508560	118.649330	-119.859146	29.137932
4446.511936	118.941559	-120.852715	29.897720
4446.515305	119.467552	-121.261833	30.482170
4446.518571	119.526001	-122.313850	31.125076
4446.521882	119.467552	-121.846291	31.709526
4446.525195	119.759789	-123.248978	31.066628
4446.528529	120.461128	-123.599648	32.235535
4446.531888	121.571587	-124.242554	33.696671
4446.535288	121.863815	-125.294563	33.462891
4446.538606	122.506721	-126.112801	33.930450
4446.541976	123.032722	-127.164810	34.222672
4446.545194	123.441849	-127.398598	35.566917
4446.548546	123.324951	-127.807709	35.566917
4446.551863	124.143196	-128.567505	37.028053
4446.555233	125.428986	-128.976624	36.969612
4446.558548	125.136757	-129.561081	37.437172
4446.561466	126.422562	-130.729980	37.904732
4446.564801	127.123901	-131.957336	39.015198
4446.568131	127.825249	-133.126251	39.891876
4446.571440	128.468155	-133.944473	39.950325
4446.574766	129.987732	-135.171829	41.060783
4446.578115	130.455292	-135.873169	42.229691
4446.581442	132.208649	-137.158981	43.047920
4446.584805	133.728241	-137.918762	44.450615
4446.588102	134.838699	-138.912338	45.677963
4446.591438	135.890717	-139.555222	47.606667
4446.594813	136.884277	-141.016357	49.360023
4446.598125	138.053177	-142.009933	50.061363
4446.601451	139.689651	-144.055511	52.048508
4446.604831	141.326141	-145.107544	53.918762
4446.608128	142.904160	-147.094681	55.146118
4446.611433	144.482178	-148.263580	55.905907
4446.614770	145.358856	-149.783173	58.828171
4446.618093	147.346008	-151.185852	60.932205
4446.621428	149.450027	-152.763870	62.393341
4446.624767	150.618942	-154.984802	64.672707
4446.628117	152.430740	-156.445938	67.478081
4446.631495	153.891876	-157.497955	69.640556
4446.634811	155.469894	-159.777328	72.212151
4446.638146	156.638809	-161.355347	74.199303
4446.641507	158.684402	-163.926941	76.653999
4446.644797	160.087097	-165.621857	79.751610
4446.648094	161.723557	-167.433670	81.972542
4446.651442	163.418472	-170.472824	85.479256
4446.654759	165.639389	-172.167740	88.284630
4446.657704	167.451218	-174.213318	90.622444
4446.661001	168.737000	-176.609589	94.129158
4446.664335	170.782578	-178.655167	96.583870
4446.667666	172.477509	-181.226761	99.623024
4446.671013	174.172424	-183.213913	103.246635
4446.674333	176.159561	-185.727051	106.694923
4446.677668	178.029816	-187.889542	109.500298
4446.681002	180.075409	-189.818237	112.597908
4446.684330	182.120987	-192.857391	117.448860
4446.687689	184.166565	-195.078323	121.540047
4446.690999	186.855057	-197.591461	124.345421
4446.694337	189.660431	-200.221512	129.313263
4446.697683	191.296906	-202.267090	133.053772
4446.701010	193.693161	-205.306259	137.729401
4446.704328	196.498550	-207.760956	142.463470
4446.707662	198.661026	-210.215668	147.197540
4446.710999	201.057281	-212.787262	151.931641
4446.714328	203.278198	-215.008179	157.074829
4446.717657	206.083572	-217.871994	163.503784
4446.720999	208.947403	-220.268265	168.705444
4446.724328	211.460556	-223.307419	175.251312
4446.727662	214.265945	-226.288116	181.388062
4446.731005	216.779083	-228.509064	187.641724
4446.734332	219.526016	-231.606674	194.304504
4446.737658	222.798965	-234.236710	202.077728
4446.740987	225.019882	-237.509659	209.617187
4446.744324	228.234375	-240.607254	217.682617
4446.747655	230.864395	-243.471069	225.689636
4446.750991	234.371140	-247.094681	234.281097
4446.754329	236.358276	-250.659851	243.866150
4446.757659	238.929855	-253.172989	252.983612
4446.761035	241.852142	-256.329071	262.568665
4446.764328	244.014618	-259.485107	272.971954
4446.767694	246.586227	-262.641144	283.082977
4446.770990	249.040909	-266.206329	293.720032
4446.774330	251.028061	-269.011688	304.883087
4446.777655	253.365875	-272.401520	315.344818
4446.780992	254.885452	-275.732910	328.085907
4446.784326	256.989471	-279.239624	338.722961
4446.787659	258.918182	-281.986572	351.347137
4446.790988	260.905334	-285.551697	363.912903
4446.794326	262.775574	-288.649323	377.121552
4446.797655	263.769135	-291.805389	388.752197
4446.800983	264.938049	-294.376953	401.785492
4446.804319	266.340729	-297.708374	416.396820
4446.807649	267.451202	-299.695496	430.891296
4446.811014	268.795410	-302.617767	445.151978
4446.814316	269.905914	-304.488007	459.061920
4446.817657	270.373474	-307.001160	474.374664
4446.820986	271.191711	-308.286987	489.102875
4446.824379	271.483917	-310.332550	504.298676
4446.827657	271.659271	-311.969025	519.786682
4446.830979	271.600800	-313.313263	535.800720
4446.834317	271.016357	-314.715942	552.223877
4446.837651	270.373474	-315.241943	569.348328
4446.840982	270.665680	-315.767975	585.537720
4446.844314	269.204559	-315.826416	603.071289
4446.847646	267.977203	-316.177063	620.137390
4446.850981	266.165375	-315.943298	638.080078
4446.854336	265.230255	-315.767975	655.672119
4446.857648	262.541779	-314.774384	672.738159
4446.860984	260.320862	-313.430176	691.031616
4446.864309	257.164825	-311.793671	710.084778
4446.867649	253.482773	-309.806519	728.261292
4446.870979	250.268265	-307.118042	746.905396
4446.874316	245.884872	-304.546478	765.374023
4446.877645	240.449448	-301.156647	784.135010
4446.880979	234.780258	-297.533020	802.428406
4446.884329	228.468155	-293.967865	821.189392
4446.887647	221.863831	-289.584442	839.015259
4446.890976	214.382828	-285.142609	855.789062
4446.894307	206.726486	-279.648743	873.790222
4446.897659	198.135010	-274.447113	890.505554
4446.900979	188.608429	-268.018127	907.221008
4446.904315	179.198730	-261.180023	922.767395
4446.907639	169.087677	-254.751007	936.735901
4446.910978	158.275284	-247.679138	951.288757
4446.914309	147.462891	-240.081238	964.088318
4446.917639	136.592056	-231.548218	976.595520
4446.920973	123.850967	-222.606079	988.343079
4446.924304	111.752769	-213.547058	998.278748
4446.927663	99.654587	-204.195801	1007.104065
4446.930973	86.679718	-194.201630	1016.046204
4446.934304	74.055527	-184.382812	1023.702576
4446.937642	60.671539	-174.096436	1029.722290
4446.940971	47.755112	-163.284042	1035.391479
4446.944306	35.014027	-152.004089	1039.015137
4446.947641	21.805378	-140.724152	1042.580322
4446.950969	7.544711	-129.151962	1044.684448
4446.954308	-5.371712	-116.936882	1046.203857
4446.957635	-18.288134	-105.773811	1046.729980
4446.961014	-31.321451	-93.032722	1045.385742
4446.964305	-44.296318	-80.700760	1044.333618
4446.967632	-56.978958	-67.375214	1041.469849
4446.970998	-70.012276	-54.341904	1037.437134
4446.974310	-82.811806	-42.009933	1032.878418
4446.977639	-94.442429	-29.093513	1026.916992
4446.980971	-107.125084	-16.060198	1019.085388
4446.984304	-119.106377	-1.857978	1012.597839
4446.987638	-130.853882	10.649327	1003.422058
