time (s)	magX	magY	magZ
7127.952844	284.400360	-322.664520	302.194611
7127.956173	287.381042	-326.346588	312.948547
7127.959511	289.894196	-329.736420	323.176514
7127.962846	294.277588	-333.126221	333.345978
7127.966179	297.375214	-336.399170	345.327271
7127.969509	300.414368	-340.256561	356.315002
7127.972846	304.154877	-343.178833	369.640564
7127.976177	307.252472	-346.568665	381.563385
7127.979507	310.408539	-350.016937	395.181152
7127.982844	314.382812	-352.939209	408.214508
7127.986208	318.473999	-355.744598	424.462280
7127.989506	321.688477	-358.783752	439.132080
7127.992855	324.610748	-361.004669	453.801849
7127.996173	328.409698	-364.102295	468.822296
7127.999507	331.390411	-365.621857	484.836334
7128.002841	334.254211	-367.784332	500.791901
7128.006175	337.702484	-369.303925	516.338379
7128.009501	340.975464	-371.466400	533.112244
7128.012842	344.949738	-372.693756	550.119812
7128.016170	347.521332	-373.628876	568.354797
7128.019506	350.794281	-374.563995	585.654602
7128.022896	354.008759	-375.031555	603.538879
7128.026177	357.047913	-375.382233	620.429626
7128.029546	359.093506	-374.739319	638.839844
7128.032832	361.781982	-374.739319	656.724182
7128.036185	364.178253	-374.213348	674.725342
7128.039497	366.691406	-374.037964	693.194031
7128.042835	369.379883	-372.635284	711.136780
7128.046165	371.308594	-371.466400	730.423767
7128.049500	373.704834	-368.894775	748.483337
7128.052834	374.172394	-367.083008	767.419678
7128.056168	375.282867	-365.037415	786.998901
7128.059495	376.276428	-362.991821	806.402710
7128.062835	377.328461	-360.946228	825.865051
7128.067519	375.925751	-354.049683	865.783142
7128.070891	375.224426	-350.893646	885.187012
7128.073804	373.646393	-346.451782	905.526001
7128.077438	372.652832	-342.945068	926.624817
7128.080829	369.379883	-337.860321	946.028687
7128.084185	367.568085	-332.775574	965.315613
7128.087516	364.295135	-327.690826	985.596130
7128.090419	360.379303	-321.787842	1005.818176
7128.093778	356.054321	-315.066620	1025.455811
7128.097016	352.080078	-307.760956	1044.976562
7128.100347	346.586212	-300.922852	1064.848022
7128.103702	340.858551	-293.500305	1084.368774
7128.107026	335.364685	-284.558136	1102.428345
7128.110364	328.117462	-275.732910	1120.195801
7128.113788	321.513123	-265.680328	1137.729370
7128.117090	313.681458	-255.510803	1153.158936
7128.120401	306.551117	-245.049088	1169.815796
7128.123707	297.959656	-233.593796	1184.777832
7128.127011	289.251312	-221.378723	1199.096924
7128.130335	280.016937	-207.819397	1213.006958
7128.133694	271.191711	-194.260086	1224.345337
7128.137048	261.606659	-181.051422	1236.151245
7128.140441	252.080078	-166.673874	1246.203857
7128.143747	242.553497	-151.887192	1254.386353
7128.147024	232.208649	-136.048508	1263.620605
7128.150343	221.513153	-119.917595	1269.114502
7128.153673	211.402115	-103.786674	1275.777344
7128.157025	201.291061	-87.305084	1280.862061
7128.160368	190.829346	-70.239044	1283.024536
7128.163753	180.426071	-53.991234	1285.713013
7128.167116	169.672134	-37.042080	1287.758667
7128.170382	158.684402	-19.917591	1287.174072
7128.173668	148.164230	-1.741087	1285.420776
7128.177009	137.059616	15.208066	1282.498535
7128.179941	125.195206	32.683228	1280.219116
7128.183245	114.382812	49.164818	1276.069580
7128.186578	103.278198	66.113968	1270.867920
7128.189918	92.173584	82.478668	1266.367676
7128.193277	81.478081	99.486275	1260.932129
7128.196601	69.555229	116.376984	1252.574463
7128.199943	57.573936	132.215652	1244.392090
7128.203243	45.943306	148.171249	1235.742187
7128.206581	34.663353	163.425491	1227.910522
7128.209948	23.208065	178.095276	1217.624146
7128.213253	10.233197	193.291046	1207.746826
7128.216579	-1.222092	207.960846	1196.233154
7128.219905	-13.086500	221.695496	1184.251831
7128.223249	-24.950907	235.839279	1172.153687
7128.226599	-36.523087	249.223267	1159.178833
7128.229931	-47.393921	262.665710	1145.794800
7128.233268	-59.375221	275.348328	1131.943359
7128.236654	-70.129166	288.673889	1117.916382
7128.239912	-80.941559	300.479858	1101.493286
7128.243243	-91.637054	311.409119	1085.654541
7128.246575	-102.157227	323.390411	1069.348267
7128.249911	-112.735832	333.793701	1054.093994
7128.253263	-122.554649	344.781433	1036.385132
7128.256575	-131.730560	354.541779	1019.202332
7128.259900	-140.731155	364.360596	1001.493347
7128.263267	-148.621262	373.536530	983.667419
7128.266600	-156.745178	382.303345	967.244324
7128.269951	-163.641724	390.602600	948.658691
7128.273231	-171.122742	398.726471	931.709534
7128.276152	-177.843948	405.272339	912.188782
7128.279479	-183.571594	412.811798	894.304504
7128.282810	-189.065460	418.481018	876.069580
7128.286145	-194.267090	425.202240	857.308655
7128.289516	-198.592041	430.812988	840.827026
7128.292814	-203.150772	435.313263	823.118103
7128.296146	-206.832840	440.281097	805.759766
7128.299472	-210.164215	443.378723	788.869141
7128.302809	-213.144928	447.703705	771.686157
7128.306144	-216.125656	450.099945	755.204529
7128.309476	-218.405014	452.671539	739.249023
7128.312808	-220.742828	455.418457	723.118103
7128.316142	-222.087082	456.762695	707.513184
7128.319475	-224.132660	458.574524	691.382263
7128.322803	-226.470474	459.451202	677.413818
7128.326137	-227.580933	460.152527	661.808899
7128.329472	-228.632950	460.912323	647.606689
7128.332833	-229.860306	461.204590	633.053772
7128.336137	-230.561646	460.912323	619.669800
7128.339472	-231.730560	460.561646	605.818298
7128.342807	-232.665680	459.217407	592.317383
7128.346139	-233.367050	458.106964	579.108704
7128.349478	-234.477493	456.704285	566.133911
7128.352810	-235.763290	455.067780	553.275879
7128.356141	-236.289291	453.548187	540.885437
7128.359465	-236.932190	451.502625	528.728821
7128.362807	-238.042664	449.398621	516.630676
7128.366140	-238.276443	447.002319	504.473969
7128.369471	-238.685562	444.839874	493.018707
7128.372803	-239.445358	441.566895	481.329620
7128.376150	-239.854462	439.462891	470.166534
7128.379463	-239.386902	436.248413	458.594391
7128.382802	-239.386902	433.501495	447.665100
7128.386134	-239.796021	430.286987	437.554047
7128.389465	-239.796021	427.481598	426.624756
7128.392797	-239.562225	423.741119	414.877258
7128.396165	-238.860901	420.409668	404.883118
7128.399467	-238.510239	417.253632	394.655151
7128.402799	-237.984207	414.039124	385.596161
7128.406136	-237.049088	410.532440	375.777313
7128.409469	-236.055527	406.850403	366.601410
7128.412802	-234.886597	403.869690	357.308594
7128.416137	-233.834610	400.362915	348.600220
7128.419468	-233.133255	396.622437	340.476318
7128.422799	-230.795441	394.109314	332.410858
7128.426128	-229.684982	390.602600	325.046753
7128.429467	-228.457626	387.504974	316.279938
7128.432801	-227.639389	384.290497	310.376984
7128.436125	-226.119812	380.959076	302.779083
7128.439466	-225.009354	378.036804	295.707184
7128.442795	-222.437744	375.348328	289.804199
7128.446132	-221.502625	372.192291	283.725891
7128.449471	-219.749268	369.562256	277.589142
7128.452795	-218.112778	366.990631	271.569244
7128.456123	-216.768555	363.250153	266.367615
7128.459484	-214.839844	360.386322	260.815308
7128.462792	-212.794266	357.814728	255.029236
7128.466129	-212.209808	355.301575	250.353607
7128.469461	-209.696655	352.262421	245.268829
7128.472800	-208.469299	349.106354	240.651642
7128.476129	-207.417297	345.774994	236.502014
7128.479498	-206.189941	343.028046	230.891266
7128.482789	-205.137924	340.398010	227.384552
7128.486124	-203.209244	338.001770	222.767365
7128.489453	-202.449448	334.787262	218.208649
7128.492808	-201.631195	332.215668	214.760376
7128.496126	-200.111633	329.644073	210.786072
7128.499459	-199.001175	327.364716	206.753357
7128.502790	-197.656921	324.500885	204.298645
7128.506121	-197.364700	321.870819	199.915253
7128.509460	-196.020447	318.890137	196.057861
7128.512792	-195.085312	316.201630	192.784912
7128.516123	-194.793091	313.980713	188.752167
7128.519458	-193.799530	311.292236	185.713043
7128.522796	-193.390396	308.486847	182.790771
7128.526124	-191.870834	306.149048	179.576263
7128.529457	-191.403275	303.811218	175.718872
7128.532787	-190.818817	301.064270	173.731750
7128.536117	-189.825256	298.551147	170.517242
7128.539456	-189.357697	296.680878	167.478088
7128.542791	-188.481003	294.226166	165.724701
7128.546115	-187.838104	292.531281	162.393341
7128.549449	-187.253647	290.076569	160.406189
7128.552781	-185.909409	288.264771	157.893036
7128.556119	-185.383392	285.985382	155.730560
7128.559450	-184.214493	284.524261	153.100525
7128.562785	-183.104034	282.712433	150.353607
7128.566131	-182.928680	281.543549	148.950928
7128.569447	-181.935120	280.023956	147.080658
7128.572783	-180.766220	278.329041	144.976624
7128.576115	-180.064880	277.043243	143.340149
7128.579453	-178.895966	276.108124	141.995911
7128.582781	-178.311508	274.880768	140.242554
7128.586118	-177.376389	273.361176	139.015198
7128.589451	-176.616592	272.484528	137.729401
7128.592780	-176.675034	270.964935	135.683807
7128.596134	-175.330795	270.497375	134.982452
7128.599449	-174.220322	269.503815	134.631805
7128.602782	-174.044998	269.153137	132.936890
7128.606111	-172.992981	268.393341	131.475739
7128.609476	-172.466980	267.165985	130.832855
7128.612786	-172.350082	266.055511	130.599060
7128.616112	-172.233200	265.763275	130.306824
7128.619445	-171.999405	264.594391	129.137939
7128.622790	-171.298065	264.594391	128.670380
7128.626112	-170.538269	264.068390	127.267677
7128.629442	-170.830505	263.191711	126.917015
7128.632780	-171.064285	262.607239	126.332558
7128.636114	-170.596725	262.256592	126.332558
7128.639440	-170.246048	261.730591	125.397423
7128.642772	-170.246048	260.970795	124.579201
7128.646106	-170.187607	259.977203	124.812981
7128.649443	-170.772049	260.503235	123.877861
7128.652797	-170.888947	259.275879	123.819405
7128.656110	-170.772049	258.340759	123.760963
7128.659443	-171.064285	258.632965	123.176506
7128.662777	-171.473404	257.347168	122.708946
7128.666137	-171.648727	257.113403	122.358269
7128.669441	-171.882523	256.996490	121.715370
7128.672769	-172.116302	256.704254	122.358269
7128.676112	-172.466980	256.178253	121.773827
7128.679445	-172.700760	255.827606	121.890709
7128.682771	-173.168320	255.652252	122.358269
7128.686110	-173.109863	256.002930	121.656929
7128.689435	-173.109863	256.178253	122.241386
7128.692769	-173.928116	256.938049	122.475166
7128.696102	-173.226761	255.886047	122.358269
7128.699441	-173.694336	256.470490	122.650505
7128.702774	-174.512558	256.061371	122.650505
7128.706100	-174.512558	257.054932	123.760963
7128.709460	-174.337219	257.405609	124.170067
7128.712771	-174.863235	257.639374	124.286964
7128.716101	-175.155457	258.457611	125.397423
7128.719435	-175.506134	258.983643	126.098778
7128.722767	-175.506134	259.684967	127.267677
7128.726098	-175.798355	260.327881	128.144348
7128.729433	-176.733490	261.379883	129.137939
7128.732839	-176.967270	262.431915	130.423737
7128.736101	-177.084152	263.834595	131.884857
7128.739429	-177.668610	264.711304	133.521332
7128.742771	-178.720627	265.587952	134.631805
7128.746103	-178.895966	267.165985	135.859161
7128.749428	-179.246628	267.691986	137.028046
7128.752779	-179.831085	268.627136	138.430756
7128.756097	-180.473984	270.438934	139.950317
7128.759428	-181.292221	271.432495	141.995911
7128.762768	-182.227341	272.309174	143.340149
7128.767494	-183.746933	275.231445	147.022217
7128.770786	-185.500275	276.517242	148.307983
7128.774161	-186.260071	277.686157	150.587372
7128.777479	-187.253647	278.855072	152.574524
7128.780773	-188.831665	279.965515	154.795441
7128.784111	-189.825256	281.835785	156.899475
7128.787466	-191.578613	282.595581	159.003510
7128.790350	-192.338394	283.647552	160.113953
7128.793698	-193.507294	284.816498	163.270020
7128.797056	-195.202209	286.628296	165.958496
7128.800370	-197.130920	287.738770	168.004089
7128.803616	-198.533615	289.667450	169.699005
7128.806968	-199.760941	290.953247	172.387482
7128.810277	-200.637634	292.063721	174.023956
7128.813628	-202.800110	294.167725	176.712433
7128.816995	-204.436569	295.511993	179.517822
7128.820353	-206.131485	297.382233	181.914062
7128.823685	-206.423721	298.551147	185.362366
7128.826985	-208.469299	301.181183	187.758606
7128.830275	-210.631775	302.116302	190.388672
7128.833604	-211.508469	304.395691	193.895386
7128.836940	-213.729385	306.733490	198.278778
7128.840308	-214.255417	308.369965	201.376404
7128.843637	-216.242538	310.298676	205.526001
7128.847018	-217.995911	311.993591	209.500275
7128.850356	-218.989471	314.682068	213.591461
7128.853600	-220.742828	317.662781	218.033325
7128.856937	-222.379303	319.883698	222.825836
7128.860270	-223.781998	322.689056	226.215637
7128.863649	-225.886017	325.786652	231.767975
7128.866995	-227.230270	327.890717	236.151367
7128.870372	-227.639389	330.520752	242.112793
7128.873692	-229.977203	333.150787	246.729980
7128.877008	-231.613663	336.482178	252.399170
7128.880272	-232.782578	338.703094	257.834595
7128.883603	-234.185272	342.443604	263.620697
7128.886926	-236.289291	344.956757	268.997650
7128.890287	-237.633545	347.878998	275.134430
7128.893636	-239.971359	350.859741	281.212738
7128.896536	-241.315613	353.840454	286.940369
7128.899857	-243.127396	357.054932	294.479828
7128.903239	-245.172989	359.392731	300.791931
7128.906545	-246.692581	361.964355	307.746948
7128.909834	-249.030380	364.360596	315.052612
7128.913182	-251.251328	366.698425	321.832245
7128.916513	-253.121567	369.445343	329.079498
7128.919838	-255.342484	371.724731	336.209808
7128.923173	-257.154297	373.887207	344.392151
7128.926509	-259.784332	376.634125	352.106934
7128.929867	-261.362396	379.205719	359.061920
7128.933189	-263.700195	381.718872	368.530121
7128.936536	-265.979553	383.238464	376.595581
7128.939892	-268.258911	385.751617	385.771484
7128.943187	-271.005859	387.037415	393.018707
7128.946507	-273.460541	389.199890	402.136169
7128.949873	-275.447693	391.771454	410.902954
7128.953172	-277.493286	392.881927	420.604919
7128.956501	-279.480438	394.985962	430.891296
7128.959837	-281.526001	396.739349	441.177673
7128.963164	-283.922302	398.083588	450.295135
7128.966519	-286.084747	399.661591	461.750458
7128.969857	-287.955017	401.531830	471.510834
7128.973194	-289.649902	403.168304	482.790802
7128.976498	-291.169495	404.337219	493.544708
7128.979840	-292.864410	404.863220	505.701324
7128.983163	-293.507324	407.025726	518.617798
7128.986507	-294.851562	408.019318	529.605530
7128.989837	-296.137360	409.188171	542.814148
7128.992781	-297.598511	409.655762	554.970764
7128.996492	-297.890717	410.941559	567.595032
7128.999408	-298.358276	411.876678	580.862122
7129.002739	-298.592072	411.701355	594.012329
7129.006073	-298.708954	412.168884	609.091187
7129.009402	-298.592072	412.285797	623.351868
7129.012741	-298.241394	412.519592	637.378723
7129.016066	-297.656952	411.759796	651.697876
7129.019462	-296.604919	410.707764	666.776733
7129.022741	-296.312683	409.597290	681.329651
7129.026069	-295.143799	407.902374	696.116333
7129.029401	-295.202240	405.798340	710.552307
7129.032739	-293.331970	404.454132	726.741699
7129.036110	-291.870850	401.473419	742.931030
7129.039398	-290.117462	398.668060	758.945068
7129.042751	-288.597900	395.628876	774.374634
7129.046064	-287.604340	392.180603	791.148437
7129.049405	-284.915863	388.030975	807.279358
7129.052739	-283.337830	383.647552	822.708923
7129.056070	-280.941559	379.205719	839.307434
7129.059401	-278.720642	373.478088	856.139709
7129.062729	-276.499725	367.516663	871.803040
7129.066065	-273.869690	361.964355	889.278198
7129.069395	-271.473419	355.593811	905.993591
7129.072735	-268.142029	348.054352	922.475220
7129.076069	-265.453552	339.404449	938.956787
7129.079427	-262.239044	332.390991	954.444763
7129.082732	-258.907684	323.799530	971.686096
7129.086062	-255.400925	314.915863	986.940491
7129.089396	-251.134415	305.389252	1002.837463
7129.092728	-246.751022	296.096436	1019.085388
7129.096067	-242.367599	285.459381	1035.333008
7129.099399	-237.282883	274.822327	1050.645874
7129.102727	-232.373459	264.477509	1067.302734
7129.106056	-226.938034	253.197540	1083.316650
7129.109400	-221.151947	241.976044	1097.635864
7129.112725	-214.606079	229.936295	1112.890015
7129.116065	-207.884872	218.481003	1127.209229
7129.119393	-200.637634	205.973694	1141.177612
7129.122761	-193.156631	192.940384	1155.379883
7129.126063	-185.149612	180.199310	1169.815796
7129.129391	-176.382812	166.990646	1182.615356
7129.132728	-167.966675	153.197540	1196.174683
7129.136056	-157.972519	139.696671	1208.682007
7129.139393	-148.679718	126.020462	1219.435913
7129.142724	-138.627121	111.467567	1231.651001
7129.146059	-128.282288	96.797783	1242.697266
7129.149388	-117.645241	82.478668	1253.041992
7129.152733	-105.956177	67.867332	1263.094604
7129.156068	-95.669785	52.788429	1271.101685
7129.159391	-83.630043	37.943306	1280.394409
7129.162730	-73.226768	23.039745	1287.174072
7129.166094	-61.420815	8.253070	1293.252441
7129.169389	-50.082405	-6.358270	1299.856812
7129.172726	-37.750443	-22.664524	1305.350708
7129.176056	-26.353594	-37.334305	1308.915771
7129.179386	-15.190531	-52.646988	1311.604248
7129.182721	-4.319696	-67.609001	1314.994141
7129.186057	6.551140	-82.454117	1315.929199
7129.189391	18.532436	-96.890121	1317.624146
7129.192725	29.637054	-111.735237	1316.805908
7129.196053	40.098770	-125.762123	1315.929199
7129.199388	50.209816	-140.841034	1314.000488
7129.202719	60.087082	-154.809479	1312.013428
7129.206056	69.847458	-168.135010	1309.500244
7129.209414	80.016945	-182.278778	1305.584473
7129.212715	88.783752	-195.896545	1299.856812
7129.216105	97.901222	-208.929871	1294.304443
7129.219395	106.901810	-221.670959	1288.576782
7129.222714	116.136177	-234.119812	1281.797119
7129.226049	124.376976	-245.750443	1271.627686
7129.229386	133.026886	-257.556396	1264.088257
7129.232718	140.917007	-269.654572	1255.262939
7129.236046	148.748688	-280.057861	1245.561035
7129.239382	156.521927	-291.396271	1235.625366
7129.242712	164.295151	-301.331970	1224.696045
7129.246048	172.009933	-311.501465	1212.714722
7129.249384	178.906494	-321.320282	1200.265869
7129.252745	186.679733	-329.911743	1187.875488
7129.256043	193.985397	-338.795441	1172.971924
7129.259381	201.115723	-347.036224	1160.873657
7129.262710	207.720047	-354.225006	1145.385742
7129.266046	214.558167	-361.530670	1131.066650
7129.269377	220.811813	-368.135010	1115.753906
7129.272708	227.708359	-374.973114	1100.382812
7129.276043	233.319107	-380.992981	1083.725830
7129.279381	239.338989	-386.895966	1066.893555
7129.282756	245.358871	-391.688477	1050.821167
7129.286048	250.735825	-396.188782	1033.287476
7129.289378	255.820572	-400.338409	1015.578552
7129.292708	261.255981	-404.429565	997.986511
7129.296046	265.054932	-408.462311	980.686707
7129.299374	269.905914	-411.267670	964.088318
7129.302709	274.172394	-413.722382	946.262390
7129.306041	277.503784	-416.820007	927.559875
7129.309374	281.127411	-419.391571	911.662842
7129.312711	284.341888	-421.612488	892.258972
7129.316043	286.329041	-421.963165	875.134399
7129.319375	289.835754	-423.658081	857.483948
7129.322707	291.881348	-425.352997	841.411438
7129.326038	293.459381	-426.229706	824.286987
7129.329376	295.797180	-427.340179	808.214539
7129.332707	296.673889	-428.392181	790.914673
7129.336040	297.609009	-428.801300	774.140869
7129.339370	299.011688	-428.859711	758.652832
7129.342716	299.479248	-429.619507	742.405029
7129.346043	300.005249	-429.268829	727.676819
7129.349371	299.888367	-429.327301	712.714844
7129.352707	299.829926	-428.625977	697.986572
7129.356076	299.771484	-428.684387	683.083008
7129.359373	299.245453	-428.041504	669.056152
7129.362699	298.777893	-427.164825	656.198181
