time (s)	magX	magY	magZ
3233.059317	-397.320282	185.220337	-1100.860962
3233.062635	-403.983032	190.071320	-1088.295166
3233.065967	-410.295166	195.097610	-1076.080078
3233.069327	-415.379944	199.071884	-1063.572754
3233.072631	-420.055542	203.163071	-1052.468140
3233.075965	-425.198730	207.838699	-1040.136108
3233.079301	-430.634155	211.812973	-1027.687378
3233.082636	-435.660431	215.904160	-1016.757996
3233.085956	-439.576263	220.229126	-1004.250671
3233.089295	-443.725891	222.800705	-992.912354
3233.092632	-447.407928	226.774994	-982.099854
3233.095960	-450.739349	229.931046	-970.527710
3233.099293	-454.538269	233.320877	-958.487976
3233.102626	-457.635895	236.886047	-948.026245
3233.105962	-461.025726	239.691422	-936.278809
3233.109294	-463.363525	242.379898	-924.998840
3233.112640	-466.694916	245.477493	-914.244934
3233.115958	-469.383423	248.224442	-902.555786
3233.119296	-471.896576	251.614273	-891.275818
3233.122618	-473.416168	253.309189	-880.872620
3233.125961	-475.812408	255.763870	-870.586182
3233.129290	-477.682678	257.926361	-859.130920
3233.132622	-479.085327	260.030365	-849.019836
3233.135955	-480.897156	262.017517	-838.733459
3233.139290	-482.708954	264.004669	-828.739319
3233.142621	-483.234955	265.816467	-818.628296
3233.145954	-484.929871	267.628265	-807.114502
3233.149317	-486.098785	269.673859	-797.646423
3233.152615	-487.326111	270.492096	-787.769104
3233.155970	-488.027496	272.070129	-777.307373
3233.159288	-488.904175	272.946777	-768.073059
3233.162621	-489.897766	274.524841	-757.669739
3233.165955	-490.482178	275.576843	-748.143188
3233.169289	-490.657532	276.511963	-738.032104
3233.172622	-490.657532	277.856201	-729.323792
3233.175952	-491.534210	278.206879	-720.673889
3233.179283	-491.534210	278.557556	-711.205688
3233.182614	-491.417297	279.200470	-702.322021
3233.185950	-492.469330	280.252472	-693.438293
3233.189284	-492.820007	280.135590	-685.314453
3233.192616	-492.469330	281.246033	-677.015198
3233.195946	-492.410889	280.778473	-668.306824
3233.199288	-492.001740	281.421387	-660.708923
3233.202615	-491.884888	282.239624	-652.351257
3233.205949	-491.183533	282.765625	-644.168884
3233.209284	-491.183533	282.765625	-636.454041
3233.212615	-489.780823	283.583862	-629.089966
3233.215951	-489.021027	283.583862	-622.368774
3233.219279	-488.261261	284.168335	-615.238464
3233.222613	-487.735260	284.285187	-607.991211
3233.225946	-486.858582	284.402100	-601.445312
3233.229280	-486.624786	284.518982	-593.964294
3233.232613	-485.046753	285.454102	-588.645813
3233.235977	-484.754547	284.752747	-582.567444
3233.239283	-483.760956	284.752747	-576.255371
3233.242611	-482.767426	284.694305	-570.293945
3233.245945	-481.715363	285.044983	-564.858582
3233.249277	-480.604919	284.752747	-559.306213
3233.252613	-479.319122	285.278778	-554.279907
3233.255943	-478.500854	285.804779	-549.136780
3233.259275	-477.565735	285.395691	-543.409119
3233.262613	-476.805939	285.161896	-537.915283
3233.265945	-475.812408	285.395691	-531.895386
3233.269277	-474.818817	285.454102	-526.869080
3233.272607	-473.649902	284.869659	-521.959656
3233.275945	-472.539459	284.869659	-517.284058
3233.279357	-471.428986	285.103455	-512.023926
3233.282611	-470.376984	284.811218	-507.465210
3233.285948	-469.617187	284.226746	-503.023376
3233.289278	-468.915863	284.109863	-498.464630
3233.292610	-465.467560	283.642303	-493.964325
3233.295937	-464.766235	283.934540	-491.334290
3233.299271	-464.064911	283.291626	-486.249573
3233.302607	-463.071320	282.999390	-482.333710
3233.305943	-462.311523	282.648743	-478.300995
3233.309276	-460.967285	282.414948	-473.216248
3233.312602	-460.149017	281.947388	-469.884857
3233.315944	-460.032166	281.187592	-466.787292
3233.319269	-458.278778	280.720032	-463.514313
3233.322639	-457.518982	281.187592	-460.182953
3233.325932	-456.876099	280.661591	-456.968445
3233.329275	-456.057861	280.369354	-453.812408
3233.332605	-455.181183	280.603149	-450.188782
3233.335935	-454.187622	279.901794	-447.032745
3233.339271	-453.720062	279.609558	-444.402679
3233.342600	-452.609619	279.083557	-441.538879
3233.345930	-451.791351	278.849762	-439.434845
3233.349268	-451.382233	278.849762	-436.454132
3233.352628	-450.213318	278.440674	-434.700775
3233.355939	-449.570435	278.265350	-432.421387
3233.359268	-448.869110	277.856201	-430.843384
3233.362600	-448.167725	278.323761	-428.973114
3233.365965	-447.875519	278.674438	-426.810638
3233.369263	-446.355927	278.089996	-425.349518
3233.372613	-446.005280	278.615997	-423.713043
3233.375933	-445.011688	278.323761	-422.368774
3233.379266	-444.661011	278.499115	-421.375214
3233.382595	-444.251892	278.089996	-419.563416
3233.385932	-443.433685	277.914642	-419.329651
3233.389265	-443.375244	278.908234	-418.277618
3233.392600	-442.849243	279.025146	-417.985382
3233.395933	-442.498566	278.966675	-416.524261
3233.400599	-441.388123	278.615997	-414.011108
3233.403958	-441.154327	278.382202	-413.368225
3233.407295	-439.926941	279.200470	-413.192871
3233.410619	-439.810059	279.200470	-411.673309
3233.413936	-439.400940	279.609558	-411.790192
3233.417285	-439.108734	279.960266	-411.790192
3233.420166	-439.517853	280.194031	-410.971954
3233.423518	-438.524261	280.486267	-409.861481
3233.426849	-438.991821	280.486267	-410.212158
3233.430190	-438.348938	280.252472	-410.270630
3233.433860	-438.173615	280.252472	-410.621277
3233.436771	-438.115143	280.953827	-410.504395
3233.440112	-437.764465	280.720032	-410.504395
3233.443457	-438.641144	280.895386	-409.919922
3233.446813	-438.232025	280.661591	-411.030396
3233.450202	-438.524261	280.895386	-410.036835
3233.453571	-438.173615	281.479828	-411.088837
3233.456784	-439.050262	281.772034	-411.264191
3233.460135	-438.816467	282.531830	-412.023956
3233.463449	-439.284058	283.116302	-412.491547
3233.466791	-439.108734	282.940979	-413.543549
3233.470131	-439.459412	283.759186	-413.777313
3233.473531	-438.933411	283.291626	-416.056702
3233.476885	-439.985382	283.583862	-416.641174
3233.480176	-439.693176	283.583862	-417.868500
3233.483459	-440.336060	284.343658	-419.914093
3233.486765	-440.745178	285.161896	-420.557007
3233.490106	-440.803650	285.161896	-423.245483
3233.493462	-441.329651	285.571014	-424.881958
3233.496798	-441.271179	286.389252	-426.518402
3233.500177	-442.089447	286.915222	-429.206879
3233.503551	-442.206299	286.915222	-430.843384
3233.506861	-442.907684	288.201050	-433.531860
3233.510104	-443.199890	289.311523	-436.161896
3233.513432	-443.550568	289.486847	-437.330811
3233.516368	-443.725891	290.831085	-440.662201
3233.520145	-444.544159	291.064850	-444.344269
3233.523007	-445.362366	291.473999	-446.448273
3233.526367	-445.362366	292.175323	-448.493866
3233.529698	-445.596161	293.110443	-451.416138
3233.533044	-446.005280	293.870239	-454.630646
3233.536409	-447.291077	294.396240	-457.435974
3233.539679	-446.881927	295.156036	-460.182953
3233.543009	-448.050842	296.441833	-464.274109
3233.546377	-448.343079	297.260071	-466.845703
3233.549673	-448.985992	297.435394	-469.651062
3233.553003	-449.453583	298.662750	-473.216248
3233.556341	-449.921112	299.364105	-477.015198
3233.559686	-451.323822	300.240784	-480.697235
3233.563021	-451.148499	301.351257	-484.496216
3233.566359	-452.200500	302.111023	-488.178253
3233.569706	-452.083618	302.052612	-490.983612
3233.573079	-453.135620	302.870819	-495.074799
3233.576340	-453.836945	302.987732	-499.049103
3233.579677	-454.538269	304.331940	-503.724701
3233.582999	-455.940979	304.507294	-507.523682
3233.586336	-456.583862	305.559296	-511.673309
3233.589689	-456.934570	306.026855	-516.407349
3233.593007	-457.226776	307.371124	-521.959656
3233.596331	-458.687897	308.306244	-525.875488
3233.599694	-458.571045	308.189362	-531.778442
3233.603028	-459.155487	309.066040	-537.038574
3233.606356	-459.623016	309.767365	-542.123291
3233.609728	-460.441284	310.059601	-548.026306
3233.612581	-461.493286	311.053192	-553.227905
3233.615908	-462.019287	311.228516	-559.481628
3233.619240	-461.843933	312.631195	-564.916992
3233.622572	-462.662201	312.631195	-572.047302
3233.625906	-463.421997	313.800110	-578.710083
3233.629241	-463.597321	314.150757	-584.262390
3233.632607	-463.831116	314.384552	-590.399109
3233.635908	-464.473999	315.670349	-597.237244
3233.639245	-464.766235	315.670349	-603.432495
3233.642575	-464.532440	316.722382	-610.036804
3233.645912	-464.357117	317.482178	-618.219177
3233.649238	-465.876709	318.008179	-624.823486
3233.652570	-465.292236	318.884857	-631.486267
3233.655908	-465.993561	319.060181	-638.324341
3233.659236	-465.350708	320.112213	-646.974243
3233.662572	-465.233765	320.521301	-654.396851
3233.665908	-465.116913	320.872009	-661.994690
3233.669255	-465.292236	321.865570	-670.352356
3233.672564	-464.123322	321.865570	-678.008789
3233.675903	-463.772644	322.099365	-685.548157
3233.679244	-463.655792	322.508453	-693.905884
3233.682571	-463.012878	322.859131	-702.088196
3233.685903	-461.960876	322.333130	-709.978333
3233.689234	-461.376404	323.034485	-719.563416
3233.692569	-460.324402	322.859131	-727.862610
3233.695902	-460.149017	322.742249	-735.577393
3233.699240	-459.155487	322.450012	-744.285767
3233.702568	-457.986572	322.625366	-752.935669
3233.705903	-457.168304	321.865570	-761.585571
3233.709233	-455.590332	321.631805	-770.703064
3233.712570	-454.772064	321.573334	-780.112732
3233.715903	-453.486267	320.872009	-788.821167
3233.719234	-452.083618	320.462891	-798.055542
3233.722564	-450.505554	320.229095	-807.056030
3233.725897	-448.752197	318.709534	-816.173584
3233.729230	-447.057281	317.891266	-827.102844
3233.732567	-445.654602	317.715942	-836.746338
3233.735897	-443.609009	316.371704	-846.039124
3233.739230	-441.621857	315.378113	-856.033264
3233.742560	-439.167145	314.209229	-867.137878
3233.745900	-436.011108	312.397400	-877.190491
3233.749254	-433.673309	310.468719	-887.184692
3233.752563	-430.634155	309.475128	-898.055542
3233.755925	-427.828766	307.955566	-909.160095
3233.759223	-424.088257	306.494446	-919.738708
3233.762567	-420.815308	304.331940	-930.375732
3233.765893	-417.659271	302.637024	-941.363464
3233.769230	-413.801880	300.299225	-953.461731
3233.772559	-409.652252	298.312103	-964.390991
3233.775894	-404.918182	295.974274	-974.969543
3233.779225	-400.242554	294.162476	-986.892456
3233.782558	-395.800720	291.883087	-997.237244
3233.785896	-390.540619	289.369934	-1007.757446
3233.789228	-386.098785	287.207458	-1019.563354
3233.792561	-380.371155	284.226746	-1030.843384
3233.795898	-374.468170	281.362946	-1041.538940
3233.799225	-369.792542	277.505554	-1052.234375
3233.802554	-363.305084	274.641724	-1064.157227
3233.805895	-357.343689	271.427246	-1075.495605
3233.809224	-351.791351	268.095825	-1086.541870
3233.812560	-344.427246	264.764465	-1097.938599
3233.815887	-338.056702	261.491516	-1107.815918
3233.819255	-331.510834	257.283447	-1118.803589
3233.822553	-324.789612	253.659836	-1130.375854
3233.825888	-316.841034	249.451767	-1140.895996
3233.829223	-310.061371	245.185287	-1150.364136
3233.832561	-302.346588	240.568100	-1161.059692
3233.835888	-294.865601	236.710693	-1170.878418
3233.839216	-287.209259	232.093521	-1181.515503
3233.842586	-279.436005	227.300995	-1191.275879
3233.845884	-271.545898	222.508469	-1202.146729
3233.849217	-262.954437	217.715958	-1210.679810
3233.852555	-254.012253	212.397430	-1221.375244
3233.855882	-245.771469	207.897141	-1230.317383
3233.859221	-236.887772	202.111053	-1239.610229
3233.862552	-228.763870	196.558731	-1248.961426
3233.865885	-219.412628	190.129761	-1257.085327
3233.869220	-210.119812	184.402100	-1265.618408
3233.872551	-200.710114	179.317368	-1275.028076
3233.875879	-191.125076	172.420807	-1283.151978
3233.879217	-181.364700	166.342499	-1291.451172
3233.882548	-171.195206	160.147278	-1298.698486
3233.885929	-160.499695	153.542953	-1306.822388
3233.889215	-150.037994	147.815323	-1314.654053
3233.892551	-140.394501	141.327881	-1321.375244
3233.895878	-129.348343	134.840454	-1329.148560
3233.899207	-118.185272	128.528351	-1335.928223
3233.902550	-106.262421	121.690239	-1341.129761
3233.905885	-95.274681	115.144356	-1348.318604
3233.909214	-84.053177	108.247803	-1353.286377
3233.912548	-72.130333	101.292816	-1359.014038
3233.915878	-60.499714	94.922272	-1363.864990
3233.919213	-48.635300	87.733482	-1368.190063
3233.922546	-37.121567	80.661598	-1372.514893
3233.925878	-25.490940	74.232613	-1376.606079
3233.929239	-13.334308	67.277611	-1380.463501
3233.932543	-1.353009	60.790176	-1382.801392
3233.935880	10.862069	53.659843	-1385.489746
3233.939209	23.427820	47.464638	-1387.769165
3233.942540	35.000000	40.451195	-1390.106934
3233.945877	46.922852	33.788429	-1392.327881
3233.949210	58.495029	27.125658	-1393.146118
3233.952539	70.476334	19.936876	-1393.672119
3233.955893	82.223846	13.858561	-1394.431885
3233.959212	93.036240	7.312681	-1395.191650
3233.962545	104.783760	0.533020	-1394.724243
3233.965876	116.005264	-6.129749	-1393.321411
3233.969205	127.226776	-12.441847	-1392.269409
3233.972576	138.857391	-20.098188	-1390.925293
3233.975874	149.845123	-26.994740	-1389.580933
3233.979215	160.715958	-33.715958	-1387.301514
3233.982534	171.177673	-39.735828	-1384.262451
3233.985869	180.996490	-45.872589	-1381.632446
3233.989201	192.101105	-51.950905	-1378.943970
3233.992540	202.504379	-58.263000	-1374.502075
3233.995868	212.323196	-64.399765	-1371.521362
3233.999209	222.375809	-70.127411	-1366.670410
3234.002537	232.837524	-76.439507	-1362.520874
3234.005869	242.481003	-81.933380	-1357.143799
3234.009206	251.832260	-87.777908	-1352.000610
3234.012539	261.358826	-94.616020	-1346.506714
3234.015889	270.242554	-99.934547	-1341.655762
3234.019200	278.950897	-105.369957	-1334.467041
3234.022533	288.009918	-110.863831	-1328.271851
3234.025866	297.536530	-115.773232	-1321.316895
3234.029246	306.069550	-121.734665	-1314.478760
3234.032534	315.011658	-126.819405	-1307.056152
3234.035862	323.603149	-131.261246	-1299.341309
3234.039198	331.668610	-136.462891	-1291.217407
3234.042538	340.201630	-141.196960	-1283.385742
3234.045865	347.390411	-145.697250	-1275.320312
3234.049198	355.222076	-150.022202	-1266.261353
3234.052533	362.586182	-153.996475	-1257.903564
3234.055866	370.651642	-157.795425	-1249.078369
3234.059226	378.307983	-162.237274	-1239.142578
3234.062530	385.438324	-166.036224	-1230.492676
3234.065864	392.276428	-169.893631	-1221.083008
3234.069197	398.004089	-173.400345	-1211.498047
3234.072532	404.666840	-177.023956	-1201.445435
3234.075860	410.745178	-180.004669	-1191.217407
3234.079191	416.297455	-183.745178	-1181.983154
3234.082525	421.908203	-186.550552	-1171.638184
3234.085862	426.466980	-190.232605	-1161.527222
3234.089198	432.136169	-192.044418	-1150.247192
3234.092527	437.279358	-195.142029	-1141.831177
3234.097214	446.104584	-201.570999	-1120.440186
3234.100539	450.488007	-204.259491	-1110.270630
3234.103892	454.403839	-206.772644	-1100.510254
3234.107245	458.495026	-208.584457	-1089.873291
3234.110558	461.767975	-211.097595	-1080.814209
3234.113889	465.566895	-213.552292	-1069.651123
3234.116791	468.664520	-215.948563	-1059.656860
3234.120114	471.411438	-218.578598	-1048.902954
3234.123818	474.099945	-219.805954	-1039.551758
3234.127150	477.431335	-222.202209	-1029.031616
3234.130076	480.236694	-224.656921	-1019.271179
3234.133400	482.106934	-225.767380	-1009.277039
3234.136769	484.795441	-227.345398	-998.289246
3234.140105	486.782562	-228.864975	-988.119751
3234.143376	488.769684	-230.969025	-978.417847
3234.146741	492.510193	-232.430145	-968.248352
3234.150036	494.614258	-233.657501	-958.312683
3234.153413	495.490906	-234.826401	-948.318542
3234.156731	497.302734	-236.345993	-938.207520
3234.160124	498.471680	-237.807129	-928.388672
3234.163445	500.225006	-239.092926	-918.686707
3234.166830	501.452362	-240.437180	-908.049622
3234.170033	502.212158	-241.138504	-898.639954
3234.173367	503.439484	-241.664505	-889.113403
3234.176718	504.433075	-242.716537	-879.703674
3234.180055	505.309753	-243.768555	-869.884827
3234.183395	506.595551	-244.294556	-861.527100
3234.186801	506.770874	-244.528351	-851.708313
3234.190149	507.530670	-245.463470	-842.298645
3234.193490	508.231995	-245.872589	-833.940979
3234.196726	508.758057	-246.632370	-823.946777
3234.200037	508.641113	-246.632370	-815.413757
3234.203367	509.108704	-247.158386	-807.172974
3234.206726	509.751587	-247.392151	-799.107544
3234.210059	509.459381	-247.509048	-790.399109
3234.213479	510.277588	-248.210403	-781.807678
3234.216295	509.810028	-248.151947	-774.677307
3234.219669	509.810028	-248.268845	-767.605469
3234.222932	509.459381	-248.210403	-760.650452
3234.226295	509.576233	-248.911743	-752.351257
3234.229611	509.225586	-249.087082	-744.461121
3234.232978	508.524261	-248.911743	-737.330811
3234.236269	509.167114	-249.262405	-730.317322
3234.239607	508.465790	-249.496201	-723.537659
3234.242944	507.705994	-249.554642	-716.524231
3234.246294	507.998260	-249.905304	-709.686096
3234.249654	507.121552	-249.846863	-703.257141
3234.252962	505.894196	-250.080658	-697.295715
3234.256309	505.485077	-249.846863	-690.749878
3234.259601	504.783752	-250.197525	-685.314453
3234.262935	503.731689	-250.431320	-679.236084
3234.266269	503.439484	-250.781998	-672.807068
3234.269603	502.562836	-250.431320	-667.254822
3234.272937	501.919922	-250.548218	-661.234924
3234.276309	500.926331	-250.840424	-655.098145
3234.279595	500.108124	-250.255997	-650.071899
3234.282934	499.815857	-250.723557	-644.402649
3234.286301	497.828735	-250.548218	-638.967224
3234.289623	497.945618	-250.781998	-634.408508
3234.292983	497.653412	-250.372864	-629.908203
3234.296273	496.718292	-250.139099	-624.765015
3234.299612	495.607819	-250.139099	-619.446472
3234.302938	494.614258	-249.963760	-614.712463
3234.306270	494.088257	-249.613098	-610.504333
3234.309594	493.445312	-249.671539	-605.887207
3234.312933	492.860870	-249.554642	-601.269958
3234.315839	492.451782	-249.671539	-596.068359
3234.319194	490.639954	-249.379303	-592.737000
3234.322501	489.997070	-248.853302	-588.178223
3234.325839	489.120361	-248.444183	-583.911743
3234.329169	487.600830	-248.327286	-580.755676
3234.332509	487.250122	-248.385742	-577.365845
3234.335834	485.964325	-248.385742	-572.514893
3234.339168	485.146118	-247.976608	-569.241943
3234.342523	484.970795	-247.216827	-565.910583
3234.345835	484.444733	-246.983047	-562.871399
3234.349200	484.327850	-247.099930	-560.475159
3234.352506	482.983612	-247.158386	-556.793091
3234.355833	482.632935	-246.866165	-553.695496
3234.359171	481.931610	-246.866165	-551.825195
3234.362506	481.522491	-246.515488	-549.078308
3234.365832	481.347168	-246.983047	-546.214478
3234.369170	480.762695	-246.106369	-544.110474
3234.372503	480.295166	-246.398590	-542.824646
3234.375832	478.892456	-246.457031	-540.253052
3234.379164	478.892456	-245.697235	-538.850403
3234.382506	478.307983	-246.223267	-536.687866
3234.385829	477.840454	-246.924591	-534.408508
3234.389163	477.022186	-246.632370	-533.590271
3234.392512	476.788391	-246.457031	-531.194031
3234.395830	476.379333	-246.983047	-530.200439
3234.399158	475.444153	-246.866165	-528.856201
3234.402490	475.327271	-246.749268	-527.745728
3234.405835	475.268829	-246.807724	-526.985962
3234.409163	474.158356	-247.509048	-526.109314
3234.412498	474.450623	-247.333725	-524.823486
3234.415825	473.749268	-247.567490	-523.420776
3234.419160	473.515472	-248.035049	-523.245483
3234.422527	472.755707	-248.210403	-522.076538
3234.425831	472.580353	-247.859726	-522.076538
3234.429165	472.288116	-248.035049	-521.842773
3234.432492	472.229706	-248.619507	-521.433655
3234.435855	472.288116	-248.561081	-521.375183
3234.439160	471.995911	-249.262405	-520.732300
