time (s)	magX	magY	magZ
8024.499845	245.066635	-328.275269	379.576263
8024.503196	241.676804	-325.060791	364.789612
8024.506516	239.689651	-321.203400	351.113403
8024.509887	237.176514	-317.579773	336.852722
8024.513181	234.721802	-314.014618	323.234924
8024.516534	232.325546	-309.280548	311.078308
8024.519843	229.520172	-305.832275	296.700775
8024.523175	227.123901	-301.916443	285.888367
8024.526514	224.786087	-297.708374	274.023956
8024.529848	221.863831	-293.441833	262.977783
8024.533174	218.473999	-288.941559	251.990051
8024.536512	216.545288	-284.616577	241.469879
8024.539850	213.739914	-280.116302	230.949738
8024.543179	210.233200	-276.025116	220.955597
8024.546508	208.012283	-271.232605	211.487427
8024.549846	204.973114	-267.492096	202.311523
8024.553172	202.343079	-263.810059	194.304504
8024.556506	199.128586	-258.549988	185.654602
8024.559845	196.615448	-254.400345	177.998230
8024.563171	193.459381	-250.367615	169.582123
8024.566505	190.303329	-246.451782	161.867340
8024.569844	187.030396	-242.243713	155.204559
8024.573175	184.400345	-238.269424	148.307983
8024.576503	181.536545	-234.178253	141.119232
8024.579840	178.555817	-230.846878	135.566925
8024.583176	175.925781	-226.112793	129.196381
8024.586510	172.828186	-222.898315	123.585625
8024.589836	170.256592	-219.099350	117.565742
8024.593173	167.860321	-216.118637	112.714790
8024.596538	165.054947	-212.495026	107.396263
8024.599842	162.424911	-208.812973	103.012856
8024.603187	160.262421	-205.890717	98.804787
8024.606507	157.340149	-202.617767	94.246056
8024.609835	154.593231	-200.163055	90.505547
8024.613169	152.664520	-197.065460	86.706612
8024.616504	150.385162	-194.084747	83.375221
8024.619833	148.222687	-190.461136	78.874931
8024.623171	145.475754	-188.415543	76.069557
8024.626505	142.962601	-185.902405	73.147278
8024.629834	141.793701	-182.804794	70.283455
8024.633171	139.572769	-180.992981	67.828758
8024.636542	138.053177	-178.304504	64.497368
8024.639862	135.481583	-175.557556	61.867325
8024.643164	134.546463	-173.745758	59.237282
8024.646509	131.857986	-171.524841	56.548805
8024.649834	129.870834	-168.894806	54.035645
8024.653171	128.000580	-166.323212	52.223846
8024.656502	126.831673	-164.745178	50.938049
8024.659838	124.844536	-161.881363	48.717125
8024.663169	122.974289	-160.011108	47.314438
8024.666497	122.039162	-158.082413	45.035065
8024.669827	120.694908	-155.919922	43.281708
8024.673161	119.935120	-153.640564	40.534775
8024.677850	116.954407	-148.964920	36.969612
8024.681210	115.493271	-147.445358	35.333138
8024.684144	114.441261	-146.276443	33.696671
8024.687847	113.564583	-143.529526	30.949738
8024.690772	111.518990	-142.652832	30.306839
8024.694467	110.057861	-140.198135	29.021042
8024.697396	109.181175	-138.678543	27.793686
8024.701182	107.661598	-137.042084	25.748100
8024.704105	107.369377	-135.230286	24.520752
8024.707458	105.732903	-133.944473	23.410286
8024.710743	104.680893	-131.723557	22.533607
8024.714029	103.804207	-130.437759	21.598480
8024.717338	102.284630	-129.035065	20.312683
8024.720673	101.817062	-127.749275	19.026878
8024.724056	100.472816	-126.580368	18.383987
8024.727370	99.713036	-125.236115	16.981300
8024.730780	98.310349	-124.534767	17.039742
8024.734119	97.609001	-122.489189	15.753944
8024.737410	96.790764	-121.904724	15.169487
8024.740673	96.381645	-121.028053	14.351257
8024.744008	95.329628	-120.443604	13.357689
8024.747344	94.160721	-119.099350	13.182350
8024.750712	94.102272	-118.281120	13.007019
8024.754026	93.225601	-117.930443	12.773232
8024.757419	92.348915	-117.170662	11.195206
8024.760803	91.647568	-116.177094	10.961426
8024.764041	90.946228	-115.651077	9.909409
8024.767333	90.712448	-114.891289	9.032726
8024.770717	90.303329	-114.014610	9.500290
8024.774030	89.660431	-113.663940	9.266510
8024.777392	89.601990	-112.962601	8.857395
8024.780756	88.959084	-112.436584	8.506721
8024.784128	88.199303	-111.618347	8.682056
8024.787432	88.549973	-111.326126	8.448273
8024.790675	88.082405	-111.209236	7.863819
8024.794017	87.322617	-109.631210	8.506721
8024.797329	87.205727	-109.338982	8.039158
8024.800250	86.504379	-109.105202	6.870255
8024.803573	87.205727	-108.403854	7.279366
8024.806953	87.147285	-108.286964	6.110458
8024.810290	86.270599	-107.702515	5.526009
8024.813661	86.153709	-107.118057	5.584454
8024.817011	85.569260	-107.001167	6.344242
8024.820245	85.160133	-105.949150	6.168907
8024.823580	85.510811	-105.540031	4.824661
8024.826902	85.452362	-105.306252	5.175335
8024.830240	84.926353	-105.364700	4.824661
8024.833581	85.393913	-104.780251	5.116894
8024.836920	85.510811	-104.838692	4.707771
8024.840242	85.160133	-104.780251	4.824661
8024.843570	84.575684	-104.020454	4.298656
8024.846947	85.393913	-104.780251	4.473991
8024.850257	85.101692	-103.903564	4.006428
8024.853598	85.335472	-103.962013	4.590881
8024.856935	84.984802	-103.669785	3.772648
8024.860242	84.867912	-103.260666	3.831097
8024.863574	85.335472	-103.377556	4.006428
8024.866907	85.160133	-103.845123	3.480423
8024.870236	85.569260	-103.845123	4.123318
8024.873585	84.926353	-104.078903	3.714203
8024.876908	85.686150	-104.721802	4.883110
8024.880236	85.393913	-104.429573	4.181767
8024.883589	86.095268	-104.663353	5.058445
8024.886490	85.861488	-104.897141	5.526009
8024.889812	86.036819	-105.715370	5.467564
8024.893141	86.504379	-105.949150	6.168907
8024.896480	86.445938	-106.124489	5.935127
8024.899822	87.205727	-106.650497	5.993568
8024.903137	87.556396	-107.234955	7.396259
8024.906474	87.673286	-107.994736	6.753361
8024.909806	88.199303	-107.936295	7.805378
8024.913141	88.316193	-108.403854	7.513149
8024.916476	89.075974	-109.163643	7.630039
8024.919805	89.601990	-109.280533	8.682056
8024.923139	90.069550	-109.806549	8.039158
8024.926477	90.595558	-109.864990	8.565163
8024.929829	91.180008	-111.092346	9.675629
8024.933135	91.413788	-112.085907	10.084747
8024.936467	92.816475	-112.261253	10.084747
8024.939805	92.465805	-112.611923	11.136765
8024.943133	93.576271	-113.313263	11.604324
8024.946467	93.985382	-113.722382	11.370544
8024.949802	94.803627	-114.715958	12.364113
8024.953131	95.797195	-115.767975	12.422562
8024.956467	96.615425	-115.943306	12.247223
8024.959822	97.141441	-116.586205	12.773232
8024.963138	98.076561	-117.521332	13.825249
8024.966522	99.303909	-118.047340	14.000580
8024.969798	99.245468	-118.631790	15.227936
8024.973158	100.706604	-119.683807	15.753944
8024.976465	101.524834	-120.326706	16.338394
8024.979805	102.401520	-121.378731	16.630623
8024.983136	103.219749	-121.729393	17.974869
8024.986471	104.388657	-123.073647	17.916420
8024.989804	106.025131	-123.774986	19.319115
8024.993137	106.784920	-124.943893	20.604912
8024.996468	108.362946	-126.346588	21.014030
8024.999797	108.655174	-127.573929	22.241379
8025.003131	109.940971	-128.742844	23.468735
8025.006463	111.402100	-130.028641	24.170074
8025.009793	112.161896	-131.957336	25.748100
8025.013131	113.681473	-133.476913	27.326126
8025.016484	115.668617	-134.645813	28.085915
8025.019799	116.837524	-136.165405	29.079483
8025.023128	118.298653	-137.977203	30.073059
8025.026466	119.642899	-139.379898	32.352425
8025.029796	120.753357	-141.016357	33.521332
8025.033128	122.389832	-143.354172	35.391579
8025.036466	124.376976	-144.698425	36.969612
8025.039798	125.604317	-146.685562	38.138512
8025.043182	127.123901	-148.555817	40.943893
8025.046495	129.227936	-151.302750	42.288139
8025.049795	131.331970	-153.114548	44.450615
8025.053127	133.903564	-155.101685	46.437759
8025.056453	135.481583	-156.855057	49.418465
8025.059809	137.351837	-159.485092	52.223846
8025.063122	138.988312	-161.296906	54.444771
8025.066458	141.969040	-163.517822	56.841034
8025.069794	143.897736	-166.030975	60.113976
8025.073125	146.586212	-167.959671	62.393341
8025.076460	148.982468	-170.355942	65.549393
8025.079792	150.969620	-172.518402	68.120987
8025.083122	153.424316	-174.797775	71.510811
8025.086460	155.937469	-177.077148	75.075981
8025.089807	158.509064	-179.473404	78.173592
8025.093117	160.846878	-182.512573	81.388069
8025.096458	163.769150	-183.856812	85.187019
8025.099788	166.282288	-186.311508	89.453529
8025.103121	169.087677	-188.766220	93.310936
8025.106453	171.951492	-191.104034	97.460548
8025.109791	174.464645	-194.318527	101.084175
8025.113122	177.562256	-196.071884	106.110466
8025.116497	181.653427	-199.403275	110.552299
8025.119791	184.926361	-202.559326	114.877266
8025.123117	187.790192	-204.429581	119.786674
8025.126452	190.712463	-208.111633	124.520744
8025.129784	194.102280	-210.390991	129.605499
8025.133142	198.076569	-212.845703	136.151367
8025.136452	200.706604	-216.352432	142.405029
8025.139790	204.447113	-219.566910	148.366455
8025.143120	207.661606	-223.015182	154.386322
8025.146455	211.285217	-225.411453	161.399780
8025.149787	214.265945	-228.918167	168.822327
8025.153115	217.889542	-232.483337	176.770874
8025.156451	221.630051	-235.990067	183.375214
8025.159782	225.604340	-238.678543	191.616028
8025.163115	228.760376	-241.834595	200.265900
8025.166449	232.500885	-245.399750	209.909393
8025.169782	236.241379	-248.731155	219.728241
8025.173114	240.215683	-251.653427	228.202789
8025.176458	243.605484	-255.043243	238.839874
8025.179781	247.755112	-258.199310	249.184692
8025.183111	251.787842	-261.238464	261.165985
8025.186445	255.119217	-264.394501	272.387482
8025.189801	259.385742	-267.258331	283.842773
8025.193118	263.301575	-270.355927	296.291626
8025.196449	267.392731	-273.453552	308.623596
8025.199780	271.483917	-276.375793	322.533600
8025.203114	275.341309	-278.479828	336.560486
8025.206440	279.198700	-281.285217	349.769135
8025.209779	283.757446	-283.272369	364.672699
8025.213148	287.322632	-285.493286	379.576263
8025.216440	291.589111	-287.772644	394.246033
8025.219773	294.920502	-289.642914	410.669220
8025.223113	298.544128	-290.519562	427.910583
8025.226438	302.810638	-292.097626	444.158386
8025.229772	306.375793	-292.331390	460.406158
8025.233111	308.888947	-293.266510	477.472260
8025.236442	313.564575	-293.850952	496.116302
8025.239769	316.077698	-293.850952	513.182373
8025.243104	318.883087	-293.792511	531.358887
8025.246440	321.688477	-292.974274	550.879639
8025.249771	323.909393	-292.623596	569.465271
8025.253107	325.954987	-291.454681	588.693787
8025.256459	327.533020	-289.818237	607.396301
8025.259780	328.877258	-287.538849	628.085937
8025.263108	329.695496	-285.084137	648.834045
8025.266437	330.279938	-282.161896	667.887207
8025.269770	330.513733	-279.356537	688.518433
8025.273101	330.689056	-275.908234	708.799011
8025.276440	329.929260	-271.466400	729.663940
8025.279767	328.526581	-266.907684	750.470520
8025.283105	326.773224	-261.472260	771.744568
8025.286438	324.318512	-256.270599	792.375793
8025.289770	321.746918	-250.367615	812.130310
8025.293106	317.538849	-243.529510	833.112183
8025.296440	314.207458	-236.399170	853.392761
8025.299786	309.181183	-227.924606	872.738220
8025.303100	304.037994	-219.508484	892.142090
8025.306431	297.667450	-209.981873	910.786133
8025.309766	291.063110	-200.338394	928.611877
8025.313099	283.815887	-189.292221	945.444153
8025.316429	275.867310	-178.362946	961.282898
8025.319770	267.626526	-166.381638	976.829407
8025.323116	258.976624	-153.582123	991.265320
8025.326431	249.859161	-140.724152	1003.947937
8025.329785	239.981888	-126.405022	1016.279968
8025.333100	229.987732	-111.852127	1027.852051
8025.336431	219.175339	-97.123901	1037.320190
8025.339762	207.720047	-82.278786	1045.561035
8025.343105	196.790771	-66.323204	1052.223755
8025.346432	185.043259	-49.607830	1057.951416
8025.349769	173.120392	-32.892460	1061.750366
8025.353097	160.846878	-16.001753	1063.737549
8025.356429	148.047348	2.876096	1064.731079
8025.359790	136.182938	19.474579	1064.731079
8025.363099	123.032722	37.183521	1063.854370
8025.366429	110.291641	54.658676	1061.750366
8025.369762	97.959671	72.133842	1058.009888
8025.373091	84.926353	89.375229	1051.580933
8025.376422	72.769730	107.259506	1046.145508
8025.379758	59.911751	124.091766	1038.898315
8025.384456	35.072472	157.464050	1019.085388
8025.387788	22.389832	173.536530	1007.863831
8025.391119	9.064290	189.258347	996.583923
8025.394410	-2.449444	204.980133	984.719543
8025.397775	-14.489187	219.416122	970.751038
8025.400671	-26.295149	233.267700	956.899475
8025.404052	-37.633553	247.060791	941.995972
8025.407345	-49.381065	260.269440	927.326172
8025.411055	-60.485687	272.542969	910.552368
8025.413945	-71.064293	284.582703	893.895386
8025.417317	-81.467560	295.628876	877.004700
8025.420657	-91.520164	305.856812	859.178894
8025.424014	-101.514313	315.967834	840.768555
8025.427356	-111.216248	325.143768	823.234985
8025.430747	-120.450615	333.326141	805.467590
8025.433933	-128.925186	340.982452	786.063721
8025.437275	-136.990646	348.755707	767.185852
8025.440606	-144.179428	355.067810	748.483337
8025.443960	-151.660416	360.853882	729.663940
8025.447322	-158.498535	365.704865	709.909424
8025.450696	-164.869080	369.737579	690.330200
8025.454026	-170.713608	374.120972	672.095276
8025.457311	-175.973694	376.751007	653.743469
8025.460630	-181.116882	379.907074	633.755127
8025.463927	-185.441849	382.420227	615.578613
8025.467288	-188.364105	383.764465	596.876099
8025.470631	-192.279938	384.991821	579.810059
8025.474015	-195.319107	385.459381	561.867310
8025.477366	-197.364700	385.459381	543.573975
8025.480652	-199.760941	385.400940	526.566345
8025.483934	-201.572754	384.874908	509.149628
8025.487262	-202.449448	383.822937	493.194000
8025.490660	-203.326111	381.835785	476.186432
8025.493957	-204.378128	380.900635	461.575104
8025.497289	-204.728806	379.147308	446.262421
8025.500198	-205.137924	376.809448	431.241974
8025.503531	-205.196365	373.828735	415.929291
8025.506902	-204.904129	371.140259	401.084167
8025.510170	-204.027466	368.159546	386.765015
8025.513510	-203.384567	365.529510	374.491516
8025.516836	-202.800110	362.373474	360.932190
8025.520171	-201.748093	358.516083	348.950897
8025.523503	-200.579193	354.834015	336.560486
8025.526876	-199.059616	351.853302	324.988281
8025.530165	-198.124481	346.593231	312.597900
8025.533533	-196.429565	342.443604	300.967255
8025.536860	-194.851547	338.527740	290.388641
8025.540195	-192.981293	334.144348	280.628265
8025.543505	-192.221497	330.170074	270.166565
8025.546845	-190.701920	325.786652	260.172424
8025.550163	-189.007004	320.760376	251.580933
8025.553501	-187.136749	316.318542	242.229675
8025.556839	-185.909409	311.701355	233.112213
8025.560169	-183.513138	306.733490	225.046753
8025.563515	-182.344238	302.759186	215.929260
8025.566858	-180.532440	298.200470	208.331360
8025.570244	-178.545288	293.115723	199.739929
8025.573523	-176.441254	288.440094	192.025146
8025.576879	-175.506134	284.173584	185.187042
8025.580171	-173.577438	279.790192	179.284058
8025.583498	-171.414948	275.056091	171.978394
8025.586399	-169.544708	270.614258	165.140289
8025.589741	-167.791351	265.704865	159.704865
8025.593068	-165.745758	261.321442	152.340729
8025.596404	-164.226181	256.587372	147.080658
8025.599741	-161.946808	252.905334	141.762146
8025.603074	-160.134995	248.931030	136.560486
8025.606405	-156.978958	245.307434	131.125061
8025.609740	-155.576263	241.216263	126.157219
8025.613090	-153.180008	237.475754	121.130913
8025.616410	-151.192856	233.559906	116.513741
8025.619737	-149.147278	229.994736	112.188774
8025.623070	-148.095261	226.488022	107.980705
8025.626398	-146.225006	223.507309	104.298653
8025.629732	-143.711853	219.766815	100.382805
8025.633091	-142.016937	216.610748	96.233192
8025.636405	-140.205139	213.922272	92.434242
8025.639737	-138.159561	210.240204	88.985970
8025.643067	-136.113953	207.493286	86.589714
8025.646397	-134.594391	203.869659	83.199883
8025.649730	-132.724136	201.590302	80.803627
8025.653069	-131.087662	198.668030	77.530693
8025.656443	-128.925186	195.804214	74.316185
8025.659740	-127.405602	193.232605	71.861488
8025.663063	-125.301582	190.602570	69.289894
8025.666403	-124.717125	188.615417	66.835182
8025.669727	-122.729988	185.634705	63.620689
8025.673060	-120.918175	183.647583	62.042664
8025.676404	-119.632378	180.608414	59.529510
8025.679729	-118.521919	178.445938	57.483932
8025.683064	-117.703682	175.699005	55.438332
8025.686399	-116.534782	174.237869	54.210991
8025.689727	-114.898315	171.783173	51.464050
8025.693062	-113.963173	169.796036	49.652252
8025.696399	-113.028053	167.049088	48.249565
8025.699759	-111.508476	165.587967	46.437759
8025.703073	-110.398018	163.367035	45.502625
8025.706400	-109.462891	161.029221	43.398598
8025.709726	-108.410873	159.451202	42.171249
8025.713060	-107.241966	157.113388	39.658096
8025.716393	-106.423737	155.593811	39.015198
8025.719728	-104.904152	154.191116	37.612511
8025.723059	-104.495033	152.496201	35.683815
8025.726393	-104.027473	151.210403	33.988892
8025.729728	-102.975456	149.281708	33.521332
8025.733059	-102.157227	147.586792	32.118645
8025.736394	-101.046753	146.242554	31.241966
8025.739725	-100.053192	144.898315	30.657509
8025.743078	-99.234947	142.969604	29.254822
8025.746396	-98.767387	141.800705	28.027473
8025.749726	-97.715378	140.105789	27.443016
8025.753058	-96.663353	139.404449	26.390999
8025.756388	-96.254242	137.651077	25.514320
8025.759718	-95.260666	136.949738	23.819405
8025.763054	-94.968437	135.897720	23.293396
8025.766392	-94.734657	135.079483	23.293396
8025.769715	-93.507301	133.910583	22.358269
8025.773114	-93.448868	132.449432	21.072472
8025.776424	-92.513741	131.748093	20.429573
8025.779727	-92.046181	131.163651	19.903564
8025.783053	-90.994156	130.579193	20.604912
8025.786409	-90.701927	129.410278	19.494453
8025.789724	-90.292809	129.176498	19.436005
8025.793053	-89.649918	128.241379	19.085327
8025.796389	-88.948570	127.656921	17.916420
8025.799721	-88.831673	127.189362	17.741081
8025.803047	-88.188782	126.312683	17.507301
8025.806387	-88.130333	125.611343	16.981300
8025.809715	-87.487434	125.436005	16.864410
8025.813055	-86.610756	124.617767	16.046173
8025.816405	-85.909409	123.857971	16.279953
8025.819713	-85.850967	123.974869	15.169487
8025.823049	-85.909409	123.624191	15.111046
8025.826381	-86.143188	123.156631	15.286385
8025.829719	-85.850967	122.630630	15.461723
8025.833057	-85.266510	122.630630	15.052597
8025.836388	-85.792519	121.637054	15.344826
8025.839712	-85.383400	120.877274	15.344826
8025.843045	-85.792519	120.760376	14.818817
8025.846445	-85.617187	121.111053	15.520164
8025.849714	-86.260078	120.468140	14.818817
8025.853046	-85.558739	120.234360	14.175926
8025.856377	-85.441849	119.883698	13.766800
8025.859724	-85.032730	119.123901	13.591469
8025.863044	-85.324959	120.059036	13.065460
8025.866375	-85.500298	119.766800	13.649910
8025.869714	-86.026299	119.065460	13.942139
8025.873053	-86.552307	118.597900	14.000580
8025.876382	-86.376968	118.890121	14.234367
8025.879703	-86.318527	119.182358	14.292816
8025.883048	-86.435417	118.714783	14.643486
8025.886375	-86.201637	119.123901	13.766800
8025.889706	-86.669205	119.474579	13.533020
8025.893044	-86.902985	119.240799	14.526596
8025.896373	-86.902985	119.065460	14.701927
8025.899703	-87.604332	120.117477	14.409706
8025.903055	-87.838112	120.409714	14.585037
8025.906377	-87.779663	120.585037	14.292816
8025.909708	-88.188782	120.818817	14.701927
8025.913046	-88.948570	121.987732	14.818817
8025.916427	-88.831673	121.578613	14.877266
8025.919709	-89.065460	122.747528	15.227936
8025.923037	-89.883698	123.331970	15.870834
8025.926374	-89.883698	123.448868	16.572182
8025.929702	-90.175926	124.208664	16.630623
8025.933073	-90.643486	125.143784	17.273521
8025.936369	-91.111053	125.669785	17.916420
8025.939699	-91.812393	126.429581	19.436005
8025.943038	-92.221512	126.429581	19.085327
