time (s)	magX	magY	magZ
9013.897564	39.105202	-232.424896	869.465210
9013.900897	26.481007	-222.372284	879.342529
9013.904228	14.441263	-210.975449	886.531311
9013.907564	0.180596	-199.578598	895.064331
9013.910931	-12.092928	-186.311508	901.668579
9013.914232	-24.658678	-173.804214	906.811890
9013.917569	-36.932205	-160.303329	910.493896
9013.920895	-49.147285	-146.568680	912.656372
9013.924233	-61.303917	-131.197540	914.526611
9013.927562	-72.992989	-116.527756	914.818787
9013.930891	-84.565170	-101.799530	914.059021
9013.934229	-94.325546	-86.136177	912.656372
9013.937558	-105.430161	-70.531273	908.623657
9013.940893	-115.833443	-54.166569	903.831177
9013.944229	-125.593803	-38.678551	898.863281
9013.947559	-134.068375	-23.658094	892.609680
9013.950925	-143.068954	-7.118060	884.719543
9013.954265	-152.069550	8.311515	877.296875
9013.957554	-159.433655	23.448860	867.419678
9013.960895	-166.973114	38.118645	858.302185
9013.964227	-174.512558	52.613098	848.483337
9013.967557	-181.409119	66.698425	837.145020
9013.970894	-188.364105	80.316193	824.111633
9013.974221	-194.617752	93.349510	812.071960
9013.977557	-200.637634	106.616592	798.804810
9013.980889	-206.832840	119.182358	784.836365
9013.984222	-212.502029	130.345413	771.510864
9013.987560	-217.586777	141.450027	756.957947
9013.990885	-222.613083	151.444183	741.236145
9013.994227	-227.990067	161.146118	726.274109
9013.997582	-232.373459	170.614258	710.143250
9014.000882	-237.341309	178.738174	692.551147
9014.004221	-241.958511	186.277618	676.361816
9014.007554	-246.166580	194.518402	659.997070
9014.010882	-250.491531	201.064285	643.164856
9014.014218	-254.115128	207.785522	625.397461
9014.017562	-256.978973	213.337799	607.863831
9014.020890	-260.193451	218.539459	589.979553
9014.024215	-262.706604	222.922852	572.562866
9014.027554	-264.869080	227.598480	555.204590
9014.030887	-266.563995	230.286957	537.261902
9014.034221	-267.440704	233.910583	519.962036
9014.037557	-268.901825	236.248398	502.428436
9014.040921	-269.135620	238.761551	484.719452
9014.044218	-269.135620	240.222672	468.296295
9014.047557	-268.901825	242.092926	452.691376
9014.050887	-268.142029	243.437164	435.450012
9014.054216	-266.388672	244.489197	418.617737
9014.057550	-265.161316	244.898285	403.246613
9014.060879	-263.349518	245.716553	389.044403
9014.064216	-260.485687	246.242554	375.368195
9014.067551	-257.388092	246.184113	359.763306
9014.070880	-255.167160	245.073639	346.963776
9014.074216	-252.069565	245.482758	334.222687
9014.077544	-248.738144	245.073639	323.468719
9014.080875	-245.114548	243.670959	310.786072
9014.084260	-241.140244	243.554077	299.681458
9014.087545	-238.101105	242.092926	287.700165
9014.090888	-234.594376	241.099365	277.998230
9014.094211	-231.263000	239.638214	267.711853
9014.097544	-227.522491	238.352417	259.061951
9014.100877	-224.600220	236.365280	249.418488
9014.104213	-220.450592	235.021042	241.236115
9014.107546	-217.586777	232.624771	232.177094
9014.110875	-213.846283	230.929855	224.696075
9014.114209	-210.339554	228.884277	217.098175
9014.117542	-206.891281	226.838684	209.266510
9014.120881	-203.969009	223.916412	201.843964
9014.124211	-200.345398	221.520172	195.531860
9014.127559	-197.247803	219.649918	189.278198
9014.130877	-194.208649	217.019867	182.732330
9014.134208	-191.344818	213.688492	176.829346
9014.137539	-188.539444	210.590897	170.166565
9014.140877	-186.026291	208.019287	164.438934
9014.144207	-182.636475	205.097015	158.594391
9014.147535	-180.298660	201.940964	151.990051
9014.150898	-176.967270	199.135590	146.671539
9014.154209	-174.395676	195.453522	141.177673
9014.157543	-172.350082	192.122147	135.099365
9014.160870	-169.895386	188.673889	130.423737
9014.164208	-166.271759	185.810059	125.222099
9014.167534	-163.875504	182.420227	119.552895
9014.170881	-161.888367	179.147278	115.052605
9014.174206	-159.199875	175.874344	109.441841
9014.177537	-156.394501	173.302750	104.766228
9014.180871	-154.115128	169.854477	100.558159
9014.184202	-151.777313	166.406189	97.168327
9014.187530	-149.030380	163.425491	92.434242
9014.190866	-146.283447	161.146118	88.284630
9014.194198	-143.711853	158.165405	84.193459
9014.197536	-141.081818	155.476913	81.797188
9014.200896	-139.036224	152.846878	77.764473
9014.204198	-136.347733	150.450623	74.140854
9014.207538	-133.951492	148.463470	71.277031
9014.210870	-131.672119	145.891876	68.880768
9014.214228	-129.801865	143.963181	65.374046
9014.217567	-127.639397	141.625366	62.744003
9014.222139	-123.139091	138.586197	58.945068
9014.225509	-121.151955	136.014603	55.672127
9014.228897	-119.106377	134.728821	54.035645
9014.232346	-117.236122	133.618362	52.223846
9014.235234	-114.722969	132.274109	50.587372
9014.238880	-113.028053	131.338989	48.717125
9014.242192	-111.683807	130.579193	47.723549
9014.245534	-110.222672	128.416718	45.677963
9014.248467	-108.060204	127.247818	45.502625
9014.252230	-106.365288	125.962006	44.041496
9014.255571	-105.137932	124.793106	42.697250
9014.258479	-103.852127	123.273514	41.411453
9014.261787	-102.683220	121.812393	40.827003
9014.265049	-101.514313	120.643494	39.307419
9014.268381	-99.760963	119.708359	38.430748
9014.271711	-98.767387	118.305679	37.495621
9014.275102	-97.481598	116.902985	36.735825
9014.278403	-96.604912	116.026291	35.274689
9014.281774	-95.085335	115.149620	33.930450
9014.285180	-94.150208	113.220924	33.229111
9014.288390	-93.682648	112.052017	33.287552
9014.291705	-92.572174	111.058441	32.001755
9014.295038	-91.052605	109.188194	30.073059
9014.298432	-90.292809	107.785500	29.605499
9014.301732	-89.649918	106.207481	28.085915
9014.305132	-89.708366	105.097023	27.209236
9014.308488	-88.247231	103.986557	26.390999
9014.311795	-87.019875	102.408531	25.163643
9014.315046	-86.376968	101.356522	24.520752
9014.318421	-85.091171	100.129166	23.234955
9014.321711	-84.097603	99.077148	22.416718
9014.325063	-83.805374	97.323792	21.540031
9014.328390	-83.104034	96.856232	20.429573
9014.331865	-81.993576	95.862656	20.020454
9014.335155	-81.116890	94.810631	19.494453
9014.338457	-80.883110	93.875504	18.150208
9014.341719	-80.006432	92.940384	17.156631
9014.345032	-78.954414	92.648163	15.695503
9014.347952	-78.311516	91.888374	15.812393
9014.351278	-77.259499	90.894798	15.169487
9014.354616	-77.025719	90.427238	14.351257
9014.357945	-76.382820	90.193451	13.474579
9014.361306	-75.506142	90.310349	14.234367
9014.364663	-74.863235	89.316780	14.409706
9014.367971	-74.863235	89.024551	13.825249
9014.371279	-73.869667	89.082993	12.948570
9014.374614	-73.285217	88.790764	13.007019
9014.377938	-72.876099	89.082993	13.649910
9014.381274	-72.642311	88.498535	13.591469
9014.384613	-72.116310	88.615433	13.123909
9014.387945	-71.239624	88.790764	12.890121
9014.391274	-71.298073	88.381653	12.656342
9014.394607	-70.830513	88.849213	12.130333
9014.397992	-71.064293	88.206322	13.007019
9014.401296	-70.479843	88.381653	13.416130
9014.404669	-71.239624	88.498535	13.416130
9014.407972	-70.187614	88.556984	13.708359
9014.411275	-70.596733	88.264755	13.591469
9014.414610	-70.772064	88.381653	13.240799
9014.417949	-70.246056	88.498535	14.000580
9014.421266	-70.362953	88.089424	12.773232
9014.424604	-69.895386	87.855644	13.416130
9014.427940	-70.070717	88.673882	13.766800
9014.430841	-69.953827	87.855644	13.240799
9014.434173	-69.953827	87.388077	13.416130
9014.437508	-70.187614	87.680305	13.883690
9014.440865	-70.187614	87.914093	13.299240
9014.444177	-70.246056	87.446526	13.299240
9014.447509	-70.479843	87.563408	12.597893
9014.450846	-69.544716	87.329628	12.831680
9014.454181	-70.772064	86.978958	12.890121
9014.457531	-70.187614	87.212746	12.422562
9014.460851	-70.421394	86.569847	12.364113
9014.464172	-70.421394	87.212746	12.422562
9014.467505	-70.421394	87.212746	12.714783
9014.470844	-70.772064	86.686737	12.130333
9014.474174	-70.421394	86.978958	11.955002
9014.477510	-70.538284	87.446526	12.481003
9014.480841	-70.421394	87.388077	12.013443
9014.484213	-71.122734	87.563408	11.487434
9014.487507	-70.888954	87.797195	11.838112
9014.490849	-71.122734	88.732315	11.955002
9014.494171	-71.356514	88.615433	12.714783
9014.497509	-71.414963	89.199883	12.597893
9014.500842	-71.824081	90.018120	12.890121
9014.504168	-71.473412	90.485687	13.357689
9014.507502	-71.940971	91.362358	14.351257
9014.510839	-72.116310	91.596146	14.701927
9014.514174	-72.876099	92.414383	15.052597
9014.517504	-73.051437	94.109291	14.701927
9014.520838	-73.109879	94.810631	15.227936
9014.524169	-73.986557	95.336647	16.338394
9014.527522	-74.687904	96.622444	17.448860
9014.530872	-74.921684	97.323792	17.741081
9014.534180	-75.213913	98.609581	19.026878
9014.537498	-75.623032	99.077148	19.436005
9014.540830	-76.791939	100.479836	19.962013
9014.544172	-77.317940	101.005844	20.663361
9014.547498	-77.668617	102.525429	21.715370
9014.550836	-78.428406	103.694336	23.468735
9014.554170	-79.889542	104.980125	23.936295
9014.557500	-80.766220	105.447693	24.637642
9014.560831	-80.766220	106.675041	25.222092
9014.564164	-82.052017	108.779076	25.806549
9014.567501	-83.045593	109.655754	27.559906
9014.570863	-83.162483	110.532440	28.495033
9014.574168	-84.272942	112.052017	28.495033
9014.577499	-85.091171	113.045586	29.780830
9014.580832	-85.734077	113.863815	31.125076
9014.584165	-86.786095	115.149620	31.651077
9014.587497	-88.071892	116.026291	32.060204
9014.590827	-88.714790	117.545883	33.112213
9014.594163	-89.357689	118.481003	33.404442
9014.597496	-90.701927	120.000580	34.164230
9014.600858	-91.111053	120.994156	35.157799
9014.604162	-92.046181	121.111053	35.566917
9014.607491	-93.098190	123.098190	37.670952
9014.610831	-93.857979	123.916428	37.378731
9014.614197	-95.319115	125.845123	38.898308
9014.617492	-96.020462	127.189362	39.599655
9014.620842	-97.364700	128.767380	41.236122
9014.624162	-98.241379	130.286972	42.346581
9014.627490	-99.293396	132.157227	44.216827
9014.630826	-100.929871	134.085922	45.444183
9014.634156	-101.864998	136.014603	47.255989
9014.637491	-103.092346	138.060211	49.126236
9014.640828	-104.495033	139.988892	50.002930
9014.644160	-105.547050	142.852722	52.165398
9014.647491	-105.956177	145.073639	54.269424
9014.650823	-108.352425	147.411453	56.899467
9014.654157	-109.287552	150.099930	58.769722
9014.657507	-110.982468	153.080658	61.516663
9014.660825	-112.618935	155.593811	63.562248
9014.664159	-114.080070	158.983643	66.484520
9014.667490	-115.015198	161.379898	70.341904
9014.670820	-116.593224	164.535950	73.614845
9014.674169	-118.872597	167.867325	77.355339
9014.677488	-120.216835	170.614258	80.452950
9014.680826	-120.976631	174.179428	84.661018
9014.684156	-122.846886	177.686142	88.635292
9014.687484	-125.009361	181.251312	92.375816
9014.690819	-126.645821	184.465805	96.525429
9014.694151	-128.048508	187.037399	100.558159
9014.697485	-129.801865	190.777908	105.233788
9014.700855	-132.256577	194.167740	110.084740
9014.704152	-134.185272	196.973114	113.766808
9014.707489	-136.172409	200.479843	118.500877
9014.710815	-138.159561	203.869659	123.234947
9014.714150	-140.322021	207.551727	128.378143
9014.717484	-142.309174	210.064865	133.229095
9014.720813	-144.822311	213.746933	137.261841
9014.724150	-146.517227	217.429001	142.931030
9014.727481	-148.855042	219.883682	148.191132
9014.730821	-151.075974	223.098190	153.100525
9014.734144	-152.946228	225.436005	158.769745
9014.737481	-155.342484	228.708939	163.796021
9014.740816	-157.388077	232.215668	169.640564
9014.744190	-159.901215	235.313278	175.718872
9014.747478	-161.771469	238.936874	182.206299
9014.750810	-163.407944	241.391586	188.343079
9014.754147	-165.278183	245.190521	194.187592
9014.757477	-167.674454	249.281708	202.253052
9014.760814	-169.661606	251.970215	209.324951
9014.764147	-171.239624	256.002930	216.864380
9014.767474	-172.876083	259.509644	224.812958
9014.770810	-174.512558	263.133270	232.703094
9014.774146	-176.382812	267.224426	241.937439
9014.777482	-177.785492	270.731140	251.814728
9014.780809	-179.246628	275.114563	261.867340
9014.784144	-180.473984	278.504364	272.621277
9014.787494	-181.642899	282.361786	283.433655
9014.790807	-182.461121	286.569824	294.655151
9014.794136	-182.811798	290.485657	306.168884
9014.797479	-183.337814	293.992401	319.377533
9014.800806	-183.220917	297.615997	332.177094
9014.804139	-183.396255	300.772064	345.151947
9014.807475	-183.045578	304.045013	358.535919
9014.810843	-183.220917	307.142609	372.971954
9014.814139	-182.578018	310.181763	388.576874
9014.817507	-181.000000	311.584442	402.486816
9014.820804	-180.298660	313.805359	416.981293
9014.824140	-179.655746	315.500275	433.872009
9014.827472	-177.259491	316.260071	449.360016
9014.830830	-175.798355	317.662781	465.374054
9014.834142	-173.928116	317.838104	481.738739
9014.837473	-171.298065	317.604340	498.337250
9014.840807	-169.310913	317.604340	514.585083
9014.844136	-165.921097	315.500275	530.716003
9014.847472	-163.758621	313.279358	547.197571
9014.850804	-160.602570	311.876678	563.679199
9014.854131	-157.680298	308.720642	579.517822
9014.857467	-153.822906	305.739929	596.876099
9014.860803	-149.965500	301.940979	613.065491
9014.864135	-146.634125	297.966705	628.144348
9014.867469	-142.542953	292.589722	644.567566
9014.870802	-138.276443	287.563416	659.529541
9014.874144	-134.009933	280.842194	675.485168
9014.877492	-129.275848	274.588531	691.382263
9014.882079	-118.054359	260.035675	721.540100
9014.885431	-111.683807	252.379303	736.560486
9014.888775	-105.196381	244.138519	751.522522
9014.892172	-98.533607	234.553482	765.724731
9014.895491	-90.994156	225.845123	779.108765
9014.898396	-83.571594	215.675613	793.895386
9014.902098	-74.746346	205.038574	806.519592
9014.905434	-65.511986	194.752197	819.260681
9014.908771	-55.868500	183.296906	832.294067
9014.911685	-46.458794	171.374054	842.346619
9014.915004	-36.055519	157.990067	854.795532
9014.918414	-24.600233	145.424316	864.438965
9014.921722	-12.618937	132.566330	873.614868
9014.924985	-0.929865	118.656342	882.031006
9014.928314	12.337230	103.986557	889.921143
9014.931639	25.253654	89.258331	897.226746
9014.934996	38.170074	75.231445	901.902466
9014.938344	51.261833	59.860313	906.870239
9014.941720	64.295151	45.365868	909.149597
9014.945050	77.854469	30.228523	910.844543
9014.948379	91.296898	14.448276	910.435425
9014.951635	103.862656	-0.396844	909.558716
9014.954983	116.369965	-16.352425	906.110535
9014.958329	129.111038	-31.139099	902.311584
9014.961697	141.559921	-45.691994	896.700806
9014.965055	152.898300	-59.251312	891.031616
9014.968401	164.119827	-74.271774	883.492126
9014.971726	174.289307	-87.363533	873.673279
9014.974979	183.757462	-100.163063	864.497437
9014.978308	193.108704	-112.670364	854.795532
9014.981648	201.583282	-124.417885	842.814209
9014.985019	209.239639	-136.866745	832.235596
9014.988328	215.201065	-147.854462	819.085388
9014.991280	222.389832	-158.608414	807.162537
9014.994568	227.474594	-168.368790	793.661621
9014.997936	232.091751	-178.012268	779.576233
9015.001209	237.234940	-187.305084	765.315613
9015.004572	240.741684	-195.896545	750.119812
9015.007880	243.839279	-203.143768	735.391602
9015.011216	247.345993	-210.449448	720.546509
9015.014552	249.917603	-217.112198	705.759827
9015.017881	251.963181	-223.424316	689.862671
9015.021229	253.482773	-229.677963	675.017578
9015.024566	255.002350	-234.938049	658.769775
9015.027900	255.762146	-239.204544	642.872620
9015.031234	256.872589	-244.230865	625.981934
9015.034583	258.041473	-247.912903	609.909424
9015.037877	257.983063	-250.659851	592.258911
9015.041206	258.392181	-253.406784	575.660461
9015.044547	258.567505	-255.627701	558.535950
9015.047884	257.807709	-257.965515	541.937500
9015.051202	258.216827	-259.601990	524.579224
9015.054531	257.573914	-261.121552	507.104034
9015.057905	256.814148	-261.180023	491.908234
9015.061234	256.171234	-262.115143	474.783722
9015.064583	255.645248	-262.056702	457.600800
9015.067883	254.242554	-261.822906	440.710083
9015.071214	252.547638	-260.712463	422.825836
9015.074538	251.086517	-259.718872	405.876648
9015.077871	249.976028	-258.608429	390.037994
9015.081204	247.696686	-257.790192	375.251312
9015.084114	245.241974	-255.510803	360.230865
9015.087442	242.611923	-253.815887	346.554626
9015.090776	240.274109	-251.653427	330.657501
9015.094111	237.527176	-249.374054	318.091736
9015.097446	235.364700	-247.386902	303.714203
9015.100777	231.215088	-244.756866	290.973114
9015.104108	228.526581	-242.594376	279.459381
9015.107470	225.370544	-240.022797	267.770325
9015.110772	222.156067	-237.042084	256.256592
9015.114118	218.532440	-234.061356	246.905304
9015.117441	215.317963	-231.255981	236.268250
9015.120788	212.337234	-229.035065	226.390991
9015.124108	208.187607	-226.288116	217.565765
9015.127440	204.564011	-223.716537	208.857391
9015.130777	201.174164	-221.086502	200.791931
9015.134106	197.959686	-219.157806	193.077148
9015.137440	194.569839	-216.293976	185.829926
9015.140775	190.011108	-213.137939	179.576263
9015.144107	187.147293	-211.326111	173.088837
9015.147438	184.634140	-208.696091	166.718292
9015.150770	180.309189	-206.884277	160.523102
9015.154106	177.094696	-204.312683	154.912323
9015.157438	174.113968	-201.857986	149.652252
9015.160773	171.250153	-200.163055	144.976624
9015.164111	167.801880	-197.591461	140.184113
9015.167440	164.879608	-195.312103	134.982452
9015.170777	162.308014	-192.389832	130.073059
9015.174106	159.035065	-190.402679	125.397423
9015.177495	156.638809	-187.714203	121.832253
9015.180771	154.067215	-184.908829	115.753944
9015.184109	151.378738	-181.811218	112.013435
9015.187438	148.865570	-179.940964	107.571602
9015.190768	146.177094	-177.486267	103.246635
9015.194122	144.014618	-174.914673	99.564583
9015.197437	141.793701	-171.817062	95.298073
9015.200769	139.572769	-169.479248	91.791344
9015.204099	137.234955	-166.790771	87.583290
9015.207431	134.488022	-164.336060	83.609001
9015.210761	132.383987	-161.706009	80.277611
9015.214106	130.396851	-158.725311	77.355339
9015.217436	128.175919	-156.562820	73.556396
9015.220769	126.188782	-154.049683	70.108124
9015.224094	124.318527	-150.952072	66.952080
9015.227431	122.506721	-148.906494	63.153130
9015.230791	120.519577	-146.627106	61.107536
9015.234097	118.649330	-144.172409	58.009941
9015.237436	116.662178	-142.243713	55.789009
9015.240765	115.142609	-140.139694	53.626534
9015.244091	113.739922	-137.918762	50.879601
9015.247446	111.168320	-136.106949	48.717125
9015.250766	110.466972	-134.762711	46.437759
9015.254091	108.538284	-132.834015	44.684395
9015.257426	106.726471	-130.145523	42.697250
9015.260762	105.265343	-128.801285	41.236122
9015.264100	103.804207	-127.281708	40.125656
9015.267428	101.933952	-126.288139	38.606079
9015.270764	101.115723	-124.184105	37.612511
9015.274133	99.479248	-123.482758	36.268265
9015.277424	98.427238	-122.722969	35.391579
9015.280761	97.492111	-121.729393	33.404442
9015.284095	95.563408	-120.268257	32.761543
9015.287426	94.336060	-119.391579	31.475746
9015.290758	93.517822	-118.105789	31.241966
9015.294093	92.524254	-117.579781	29.780830
9015.297420	90.946228	-117.053764	30.189949
9015.300756	90.361771	-115.826416	28.670372
9015.304093	88.842194	-115.358849	27.910576
9015.307425	87.439507	-114.540619	26.975456
9015.310758	86.796608	-113.371712	26.800117
9015.314091	85.452362	-112.787254	25.222092
9015.317490	85.101692	-112.027466	25.806549
9015.320777	84.575684	-111.092346	24.111626
9015.324096	83.582115	-110.507889	24.053185
9015.327425	82.880768	-108.988312	23.351845
9015.330757	81.536522	-108.812973	22.650497
9015.334087	80.659851	-107.644066	20.955582
9015.337418	80.367615	-106.592049	20.780251
9015.340750	79.900055	-105.247810	20.429573
