time (s)	magX	magY	magZ
6103.292806	-201.520737	100.476326	-871.733459
6103.296134	-188.954987	92.995323	-884.591492
6103.299490	-175.687897	85.046761	-897.566345
6103.302798	-161.602554	76.221512	-911.067200
6103.306154	-146.523666	67.630043	-921.879578
6103.309481	-132.204544	58.278786	-931.289307
6103.312814	-117.301003	49.395096	-941.634094
6103.316133	-100.936295	39.167152	-951.160706
6103.319472	-85.565170	29.582113	-958.291077
6103.322373	-69.609589	20.639975	-964.720093
6103.325704	-53.712448	10.002922	-970.798340
6103.329038	-37.172417	0.184103	-974.772644
6103.332376	-20.632378	-9.985390	-978.279297
6103.335710	-4.793688	-20.505554	-980.675598
6103.339035	12.330801	-30.265926	-981.727600
6103.342393	28.052601	-40.143192	-981.318481
6103.345707	44.826416	-49.026886	-980.208008
6103.349042	60.431328	-58.728813	-979.798889
6103.352368	76.094681	-67.904732	-975.357056
6103.355707	91.816483	-76.729980	-970.272339
6103.359040	106.427818	-85.204559	-965.830505
6103.362374	122.208061	-94.088249	-958.583252
6103.365704	136.877853	-102.270599	-952.095825
6103.369039	151.664520	-109.868500	-943.796631
6103.372367	165.574524	-117.349503	-934.386963
6103.375706	179.426071	-124.362946	-923.106995
6103.379037	192.810059	-131.025726	-912.177673
6103.382366	205.784927	-137.571594	-900.196350
6103.385707	218.759796	-143.240799	-886.695496
6103.389031	229.805969	-149.026886	-872.610229
6103.392364	241.202805	-154.228531	-858.875488
6103.395704	252.307434	-159.137939	-843.153748
6103.399053	263.412048	-164.047348	-827.782593
6103.402368	272.646393	-168.021637	-810.833435
6103.405700	281.471649	-172.054367	-794.234985
6103.409033	290.355316	-175.619522	-776.292236
6103.412372	298.420807	-179.067810	-760.102844
6103.415694	306.194031	-181.639404	-742.686157
6103.419029	312.447662	-184.152542	-723.516052
6103.422361	318.701355	-186.139694	-705.690247
6103.425693	323.786072	-188.828171	-687.163025
6103.429049	329.163055	-190.406204	-669.454102
6103.432360	333.371124	-191.458221	-649.524231
6103.435694	336.877838	-192.977798	-631.113953
6103.439028	340.033905	-194.146713	-614.047913
6103.442373	342.780823	-194.497375	-593.708984
6103.445693	344.125061	-195.315613	-575.824646
6103.449024	346.053741	-195.724731	-558.466431
6103.452365	346.345978	-196.016953	-541.049683
6103.455697	347.807129	-196.192291	-522.288757
6103.459052	346.930450	-196.309174	-505.222656
6103.462358	347.164215	-196.016953	-488.507294
6103.465693	346.462860	-194.731155	-471.733490
6103.469025	345.469299	-194.088257	-456.362366
6103.472358	343.774384	-192.744019	-439.588531
6103.475695	341.787262	-191.808899	-425.035645
6103.479028	340.209229	-190.756866	-410.307434
6103.482360	337.637634	-190.406204	-396.046753
6103.485701	336.001160	-188.477509	-382.078308
6103.489022	333.195801	-187.659271	-368.752777
6103.492354	330.507294	-185.613678	-355.427216
6103.495687	327.818817	-183.860321	-342.627716
6103.499026	324.954987	-181.990067	-329.886627
6103.502378	322.441833	-180.528946	-317.846863
6103.505692	318.409119	-178.074234	-306.040894
6103.509018	315.136169	-176.262436	-295.228516
6103.512353	312.447662	-174.509064	-285.292816
6103.515690	308.473389	-171.703690	-274.480408
6103.519022	305.258911	-170.008774	-264.603149
6103.522349	301.635284	-167.670959	-254.492096
6103.525691	298.070129	-165.566925	-244.907074
6103.529021	294.855621	-163.404449	-235.029816
6103.532354	290.647552	-161.183533	-226.379883
6103.535689	287.140839	-158.670364	-217.554657
6103.539043	283.341888	-156.274124	-209.138519
6103.542349	279.367615	-153.760956	-201.131500
6103.545687	274.925751	-151.656937	-192.890717
6103.549027	272.412628	-148.793106	-185.117493
6103.552351	268.555206	-146.572189	-177.519577
6103.555687	264.873169	-144.000595	-170.213898
6103.559019	261.541779	-141.662781	-163.083572
6103.562347	257.333710	-139.967865	-156.829926
6103.565682	253.651657	-137.688492	-149.933380
6103.569018	250.086502	-135.467560	-144.556396
6103.572352	246.988907	-132.837524	-137.776733
6103.575682	243.248383	-131.084167	-132.165985
6103.579011	239.917007	-128.804794	-126.789009
6103.582380	235.942719	-126.583870	-122.522499
6103.585680	232.202209	-124.830505	-116.210403
6103.589014	228.870834	-122.901802	-111.826996
6103.592346	225.305679	-120.680885	-106.683807
6103.595673	222.091171	-119.044418	-102.534187
6103.599015	219.519592	-117.700180	-98.618347
6103.602341	215.954422	-116.297493	-95.111633
6103.605680	212.272354	-115.187019	-90.728226
6103.609042	208.707199	-112.556984	-87.279953
6103.612349	206.077148	-111.212738	-83.481003
6103.615677	203.388657	-109.459381	-80.149620
6103.619013	201.284637	-108.582703	-76.993568
6103.622347	198.771484	-107.004677	-74.480423
6103.625694	195.849213	-105.251312	-71.265923
6103.629007	192.751617	-103.907066	-68.518997
6103.632343	190.530685	-102.445938	-66.999413
6103.635674	187.842194	-100.751022	-64.603157
6103.639009	185.738159	-99.932785	-62.031559
6103.642341	182.874359	-98.179428	-59.576855
6103.645680	181.062546	-97.302742	-57.180595
6103.649004	179.016953	-96.484512	-55.661015
6103.652345	176.854477	-94.789597	-52.914085
6103.655681	174.458206	-93.854469	-50.167152
6103.659008	171.828171	-92.568672	-47.770893
6103.662336	170.191696	-91.282875	-45.959087
6103.665668	168.438354	-90.172409	-44.497955
6103.669009	166.626541	-89.120399	-42.627701
6103.672359	164.288727	-87.483925	-41.049679
6103.675672	163.119812	-86.139679	-39.822327
6103.679003	161.600235	-85.263008	-37.718292
6103.682340	158.911743	-84.503212	-36.140266
6103.685668	157.333725	-83.568085	-35.088249
6103.689004	155.989487	-82.282288	-33.568672
6103.692339	154.236130	-81.288719	-32.049095
6103.695669	152.658096	-80.353600	-30.938631
6103.699004	151.255417	-79.944481	-28.951490
6103.702343	149.735825	-78.834015	-28.483927
6103.705664	148.683823	-77.957336	-27.198130
6103.709000	146.696671	-76.846870	-25.269432
6103.712348	145.819992	-75.970192	-24.392752
6103.715670	144.125076	-74.567505	-22.756283
6103.719003	142.663940	-74.567505	-22.990065
6103.722335	141.319702	-73.807716	-21.295149
6103.725669	140.209244	-72.872589	-19.834015
6103.728998	138.865005	-72.405029	-20.067797
6103.732375	137.988312	-72.463478	-19.892458
6103.735664	136.176514	-71.353012	-18.314434
6103.739005	134.949158	-70.300995	-18.197544
6103.742352	134.247803	-70.300995	-17.203972
6103.745666	133.429581	-69.833435	-16.736412
6103.749000	132.903564	-69.307419	-15.976620
6103.752332	132.319107	-68.839859	-15.099941
6103.755664	130.741089	-68.080070	-15.099941
6103.758992	129.805969	-67.554062	-14.340153
6103.762329	128.461716	-66.969604	-12.177673
6103.765661	128.403275	-66.560493	-12.528347
6103.768990	127.994156	-66.560493	-12.762127
6103.772327	127.409698	-66.443604	-12.703682
6103.775661	126.649902	-66.385155	-11.768559
6103.778994	125.188782	-66.443604	-11.184105
6103.782332	124.838104	-65.859146	-11.242550
6103.785667	125.071884	-65.391586	-10.599648
6103.788994	124.721214	-65.508476	-10.891872
6103.792382	124.370537	-64.398010	-10.132084
6103.795667	123.435417	-64.807129	-10.716537
6103.798988	123.376968	-64.222679	-10.658092
6103.802321	123.201630	-64.047340	-9.898304
6103.805663	122.558739	-64.047340	-10.073639
6103.808996	122.324959	-63.638222	-10.132084
6103.812324	122.208061	-63.638222	-10.482758
6103.815677	122.091171	-63.229103	-9.898304
6103.818993	121.798943	-62.878433	-9.722969
6103.822322	121.506714	-62.410873	-10.015194
6103.825656	121.214500	-61.826416	-9.255405
6103.828990	121.331383	-62.177094	-9.138515
6103.832323	120.805374	-61.767975	-9.080067
6103.835659	120.805374	-61.884865	-8.203388
6103.838995	119.811806	-61.183517	-8.203388
6103.842323	120.220924	-61.066628	-7.969608
6103.845658	120.104027	-61.592636	-7.735825
6103.848990	120.220924	-61.592636	-7.209816
6103.852374	120.630035	-61.241966	-7.034481
6103.855656	120.513153	-61.534195	-7.443600
6103.859014	120.630035	-60.599068	-7.092926
6103.862318	120.513153	-61.125076	-7.268265
6103.865650	120.396255	-61.300407	-6.683811
6103.868985	120.454704	-61.183517	-7.443600
6103.872331	120.571587	-61.183517	-7.385155
6103.875651	120.571587	-61.534195	-8.144943
6103.878982	120.746933	-61.475746	-8.904732
6103.882313	121.448280	-62.060196	-8.144943
6103.885656	121.974281	-62.118645	-8.670952
6103.888982	122.500290	-61.884865	-8.787842
6103.892319	122.734070	-62.586205	-8.028053
6103.895646	122.850967	-63.112213	-8.495617
6103.898979	123.435417	-62.703102	-8.729397
6103.902325	123.669197	-63.287552	-9.956749
6103.905652	124.253654	-63.404442	-9.722969
6103.908978	124.955002	-63.930450	-10.716537
6103.912334	126.007011	-64.456459	-10.658092
6103.915653	126.182343	-64.398010	-11.008766
6103.918983	126.883690	-64.865578	-11.943893
6103.922308	127.760376	-65.040909	-12.820572
6103.925650	128.753952	-65.391586	-13.580360
6103.930268	130.565750	-66.151375	-14.866161
6103.933706	131.617767	-66.735825	-14.866161
6103.937032	131.909988	-67.261841	-15.158386
6103.939936	133.371124	-67.144943	-15.684395
6103.943657	134.306259	-67.261841	-16.385738
6103.946971	135.533615	-68.196960	-17.087082
6103.950279	136.527176	-68.956749	-17.963760
6103.953661	137.929871	-69.248978	-18.665108
6103.956988	138.280548	-69.658096	-19.366451
6103.959902	139.215668	-70.242546	-19.541786
6103.963254	140.910583	-70.593216	-20.301579
6103.966490	141.728821	-70.593216	-20.827587
6103.969838	142.605499	-71.060783	-21.587376
6103.973152	144.125076	-72.288139	-22.405611
6103.976506	145.644669	-72.697258	-22.756283
6103.979860	147.164230	-72.931038	-24.392752
6103.983252	148.625366	-73.924606	-24.509644
6103.986550	149.326721	-74.041496	-26.029221
6103.989857	151.196960	-74.509056	-26.905903
6103.993151	152.073639	-75.736412	-28.483927
6103.996493	153.359451	-76.554649	-28.776154
6103.999845	155.814148	-77.372887	-29.477497
6104.003173	156.866165	-78.366447	-31.055521
6104.006581	158.794861	-78.483345	-33.042664
6104.009890	160.606674	-80.061371	-34.386909
6104.013184	162.710693	-80.996490	-36.023376
6104.016478	164.230286	-81.931618	-38.244301
6104.019827	166.217422	-82.457626	-38.945644
6104.023168	168.496796	-83.743423	-40.523670
6104.026559	170.483932	-84.327881	-42.043251
6104.029880	172.471085	-85.321449	-44.614845
6104.033241	174.925781	-86.724136	-46.368206
6104.036558	176.737595	-87.893044	-47.946228
6104.039820	179.133835	-89.178848	-51.745178
6104.043151	181.588547	-90.289307	-54.784336
6104.046489	185.153717	-91.516655	-56.946815
6104.049858	186.907074	-92.276443	-59.576855
6104.053167	189.011108	-93.796021	-62.148453
6104.056560	192.225601	-95.198708	-64.544708
6104.059950	194.797195	-96.075394	-67.525421
6104.063179	197.836365	-97.594971	-70.506134
6104.066482	200.407959	-98.646988	-73.019287
6104.069446	202.804214	-99.582115	-75.707771
6104.073171	206.369385	-100.867912	-78.980713
6104.076498	209.291641	-102.212158	-82.662766
6104.079419	212.038589	-103.497955	-86.286377
6104.082741	215.019287	-105.309761	-89.617767
6104.086075	217.941574	-106.069550	-93.299820
6104.089398	221.506729	-107.530685	-97.449448
6104.092720	224.838104	-108.991814	-101.482170
6104.096056	227.994156	-109.751610	-105.748688
6104.099400	230.857986	-111.621857	-109.372299
6104.102722	234.072464	-113.141441	-113.989479
6104.106059	237.929871	-113.901222	-118.372879
6104.109392	241.553497	-116.005257	-123.048508
6104.112769	245.235535	-117.407951	-126.672119
6104.116074	248.800705	-118.693741	-133.685577
6104.119409	251.839874	-120.037994	-138.419632
6104.122737	255.288147	-121.206902	-144.439514
6104.126051	259.203979	-123.135590	-149.524261
6104.129380	263.295135	-124.713623	-156.011688
6104.132722	266.509644	-126.174759	-162.148437
6104.136069	270.367035	-127.986557	-168.168335
6104.139379	274.516663	-129.213913	-175.181763
6104.142722	278.257172	-131.376389	-183.305664
6104.146067	282.757416	-133.305084	-190.319122
6104.149405	286.614838	-134.649338	-198.618347
6104.152728	290.998230	-136.578018	-206.859131
6104.156085	294.738739	-138.506729	-215.918182
6104.159373	298.070129	-139.149612	-224.684998
6104.162721	301.459961	-140.902985	-233.744019
6104.166050	306.135590	-142.890121	-243.153717
6104.169377	309.876099	-144.468155	-252.972534
6104.172711	315.019287	-145.637070	-264.018707
6104.176044	318.701355	-147.156631	-275.240204
6104.179395	322.734070	-148.851547	-285.701935
6104.182721	327.701904	-150.312683	-298.092346
6104.186071	330.390411	-151.481598	-310.365845
6104.188974	334.832245	-152.124496	-321.821167
6104.192290	338.455872	-153.702530	-334.562256
6104.195620	341.436584	-154.988312	-347.244873
6104.198962	344.767944	-155.806564	-360.336639
6104.202287	348.508453	-156.741684	-374.129730
6104.205616	351.255402	-157.092346	-387.805939
6104.208951	353.826996	-157.793686	-402.475739
6104.212288	356.573914	-158.611938	-417.203949
6104.215618	359.203949	-158.728821	-431.873749
6104.218950	361.483337	-158.728821	-446.835754
6104.222284	363.002899	-157.969025	-462.440704
6104.225614	365.106934	-157.852142	-476.876648
6104.228975	366.743439	-157.793686	-493.475159
6104.232279	368.905884	-156.975464	-509.722961
6104.235617	369.724121	-156.507904	-526.263000
6104.238956	369.841003	-154.403870	-542.919922
6104.242281	369.957916	-153.527176	-559.869080
6104.245618	370.425476	-151.540039	-577.168884
6104.248953	368.905884	-150.195801	-594.410278
6104.252286	367.503204	-147.974884	-611.184082
6104.255617	366.451202	-145.753952	-628.191650
6104.258988	363.879578	-143.065460	-644.439514
6104.262283	361.658661	-140.786087	-662.966675
6104.265616	358.327271	-137.571594	-679.623596
6104.268948	353.943878	-133.246643	-697.390991
6104.272308	350.086487	-129.213913	-714.573914
6104.275612	345.469299	-125.531853	-732.049072
6104.278947	339.624756	-121.732903	-749.290466
6104.282275	333.312683	-117.407951	-765.888916
6104.285620	326.533020	-112.323204	-782.078308
6104.288943	318.642883	-107.706017	-799.027466
6104.292279	310.635895	-101.978378	-814.340149
6104.295607	300.875488	-96.016945	-829.594360
6104.298946	291.465790	-89.821739	-844.673279
6104.302303	281.062531	-83.217415	-859.226135
6104.305612	270.834595	-76.496201	-871.441284
6104.308944	257.976624	-70.242546	-885.409668
6104.312276	246.170654	-62.235535	-898.326111
6104.315619	233.604904	-54.286964	-908.904785
6104.318938	220.454712	-46.338398	-919.658691
6104.322272	206.077148	-37.922272	-927.607239
6104.325612	191.582703	-29.097021	-936.549377
6104.328943	177.380493	-20.563999	-942.861450
6104.332273	161.717117	-10.686734	-948.998291
6104.335604	146.462891	-1.627705	-953.381653
6104.338936	130.448853	7.781998	-958.583252
6104.342268	114.843956	17.483927	-960.921082
6104.345625	99.414375	27.127409	-962.265320
6104.348937	83.049683	36.537109	-962.440674
6104.352277	66.801872	46.706604	-961.330261
6104.355600	50.437172	56.233192	-959.518433
6104.358937	34.656925	66.519577	-956.654541
6104.362269	18.818233	76.279953	-951.686707
6104.365601	1.284629	85.631210	-947.478699
6104.368932	-13.969608	94.982475	-941.751038
6104.372302	-28.639391	104.918175	-935.731140
6104.375602	-43.893623	113.977211	-927.256592
6104.378936	-59.147873	123.620689	-918.372803
6104.382271	-73.700760	131.803024	-909.372253
6104.385599	-88.312103	140.336060	-899.670349
6104.388970	-102.046761	148.459961	-887.747498
6104.392269	-116.658089	156.759201	-876.584473
6104.395605	-129.749847	164.240204	-865.070740
6104.398936	-142.432495	171.545868	-851.686707
6104.402266	-155.465805	178.968445	-838.536499
6104.405596	-167.563995	184.579193	-824.451172
6104.408931	-179.603729	191.475739	-810.073608
6104.412267	-191.059021	197.086487	-795.871399
6104.415599	-202.748093	202.288132	-780.675598
6104.418928	-211.573349	207.255997	-765.187622
6104.422265	-221.918182	212.516083	-749.641113
6104.425594	-231.561661	217.367035	-733.101074
6104.428931	-239.334900	220.347748	-716.853271
6104.432271	-248.101700	223.620682	-699.728760
6104.435598	-255.232040	227.010513	-683.831665
6104.438927	-262.070160	229.757431	-666.999390
6104.442262	-269.317352	231.744583	-649.348877
6104.445591	-275.045013	234.023956	-633.101074
6104.448928	-281.064880	235.426651	-616.210388
6104.452257	-285.682068	237.296906	-600.547058
6104.455595	-289.247223	238.173569	-583.656311
6104.458929	-293.513733	239.576279	-567.057861
6104.462260	-297.429596	240.277618	-551.102295
6104.465591	-299.767395	240.394501	-534.503845
6104.468950	-301.403870	240.803619	-518.665100
6104.472257	-303.741699	240.394501	-502.066620
6104.475590	-305.611938	239.634705	-487.338409
6104.478927	-306.605499	239.050247	-472.727081
6104.482260	-307.365295	238.641144	-457.472809
6104.485589	-306.956177	237.355331	-444.264160
6104.488921	-307.599060	236.069550	-430.763275
6104.492263	-306.722412	234.783752	-417.203949
6104.495592	-305.495056	234.199295	-403.761536
6104.498922	-306.196381	233.030380	-390.903564
6104.502259	-303.449463	231.393921	-378.454712
6104.505585	-301.929871	229.114532	-366.940948
6104.508919	-301.053192	227.127396	-354.492096
6104.512297	-299.416718	225.666275	-342.861481
6104.515587	-297.371155	223.854462	-332.282867
6104.518925	-295.091766	221.808868	-322.113373
6104.522258	-292.987762	220.289307	-310.833405
6104.525590	-291.175934	217.893036	-300.313263
6104.528917	-288.253662	215.379883	-291.488037
6104.532258	-285.857422	212.574509	-282.779663
6104.535584	-283.168915	210.178238	-272.727051
6104.538916	-280.538849	207.781982	-263.434235
6104.542260	-278.084167	204.976608	-254.784332
6104.545586	-275.395660	202.931030	-245.900635
6104.548913	-272.122742	200.417877	-237.659851
6104.552278	-269.200500	197.261810	-229.068390
6104.555619	-266.395111	195.216232	-220.827576
6104.558911	-263.472839	192.527756	-213.112793
6104.562267	-260.667450	189.605484	-206.274689
6104.565588	-257.160736	186.391006	-199.378143
6104.568914	-254.881363	183.527161	-192.598480
6104.572253	-251.374619	181.189362	-185.468140
6104.575586	-248.569260	178.734650	-178.279373
6104.578912	-245.413208	175.286377	-171.675049
6104.582247	-242.374039	173.474564	-165.596741
6104.585584	-238.925766	170.610748	-159.869080
6104.588911	-235.945068	167.396255	-154.959671
6104.592251	-232.730560	165.233780	-148.939804
6104.595583	-230.334305	162.311508	-143.270599
6104.598909	-227.587372	160.032135	-138.536530
6104.602251	-224.781998	157.869659	-133.802460
6104.605578	-221.509048	155.473389	-128.600830
6104.608914	-218.703674	153.135574	-124.451195
6104.612260	-215.547638	151.089996	-120.243134
6104.615585	-212.800705	148.752182	-116.268852
6104.618912	-209.878418	146.998825	-112.820572
6104.622240	-207.248383	145.596130	-108.203384
6104.625581	-205.144363	142.615417	-105.047340
6104.628909	-202.397415	140.978958	-101.423721
6104.632238	-199.241379	139.225601	-98.033897
6104.635579	-196.903564	137.472229	-95.286972
6104.638914	-194.857986	135.426651	-92.598480
6104.642276	-192.227936	134.491516	-89.325539
6104.645571	-190.357681	132.504379	-86.052597
6104.648906	-187.493851	130.751022	-83.481003
6104.652238	-185.623596	129.056107	-80.383400
6104.655573	-183.168900	128.296310	-77.811806
6104.658904	-181.415543	126.484520	-75.649323
6104.662244	-179.253052	124.848045	-73.253067
6104.665574	-177.149033	123.386909	-71.207481
6104.668900	-174.752777	121.750435	-69.278786
6104.672240	-173.350082	120.055519	-66.473404
6104.675571	-170.369370	118.769722	-65.304497
6104.678905	-168.908234	118.185280	-62.674458
6104.682236	-166.979538	116.724144	-60.979546
6104.685591	-164.817062	115.087669	-59.343075
6104.688900	-163.414368	114.269432	-57.355930
6104.692235	-162.187027	112.516075	-55.777908
6104.695574	-160.492096	110.996490	-53.206310
6104.698904	-158.388077	109.886032	-50.108707
6104.702233	-157.803619	109.067802	-49.465809
