time (s)	magX	magY	magZ
5643.295042	-322.561096	239.634705	-618.898865
5643.298379	-317.651672	239.459381	-636.257141
5643.301714	-313.268280	238.758026	-653.732300
5643.305047	-308.183533	237.472229	-671.616638
5643.308376	-302.572784	236.186447	-688.624207
5643.311733	-295.500885	235.601974	-706.625366
5643.315081	-287.786102	234.082397	-724.684937
5643.318390	-279.486877	231.452347	-741.809448
5643.321715	-271.070740	229.757431	-758.992371
5643.325043	-261.193451	227.536514	-775.415527
5643.328376	-251.549973	224.672699	-792.364685
5643.331716	-240.854462	221.984207	-807.911194
5643.335044	-229.048492	218.126831	-824.100525
5643.338381	-217.534760	215.438324	-839.939209
5643.341711	-204.150772	211.054932	-853.849243
5643.345039	-191.760376	206.379303	-867.992981
5643.348375	-178.727066	202.463470	-882.312134
5643.351713	-164.349503	197.729385	-896.280518
5643.355059	-149.504379	192.703094	-909.489136
5643.358371	-134.717712	186.917007	-920.886047
5643.361709	-119.814140	180.663345	-931.581482
5643.365042	-104.209229	175.520157	-941.224976
5643.368373	-87.493866	169.266510	-950.926880
5643.371706	-72.122742	162.720627	-960.161316
5643.375100	-56.400940	156.291641	-968.343628
5643.378373	-39.159554	149.395081	-975.357056
5643.381710	-22.970194	142.030975	-980.617126
5643.385044	-6.488604	134.725311	-987.513733
5643.388370	11.687901	126.952080	-990.728210
5643.391701	27.468147	119.587959	-993.884277
5643.395037	44.534187	112.340736	-996.864990
5643.398407	61.600235	103.983047	-999.261230
5643.401700	78.666275	95.040909	-1000.371643
5643.405033	95.732323	87.092346	-1000.079468
5643.408370	112.272362	78.968437	-997.800049
5643.411704	130.098190	70.376968	-996.046753
5643.415033	146.112228	62.077736	-993.182983
5643.418367	162.886032	54.070717	-989.208618
5643.421701	179.542969	45.537697	-982.779602
5643.425032	195.732330	37.472237	-975.883118
5643.428363	211.337234	28.763880	-969.337158
5643.431703	226.766800	20.289305	-960.219788
5643.435051	242.430161	13.158970	-951.803589
5643.438367	256.457031	5.970192	-940.289917
5643.441718	270.776123	-1.569260	-930.120361
5643.445036	284.569244	-8.582702	-916.561035
5643.448370	297.310333	-16.823496	-903.644653
5643.451701	310.577423	-23.603157	-890.026855
5643.455030	322.675629	-28.980129	-873.779053
5643.458364	333.312683	-35.526009	-860.278259
5643.461697	344.008179	-41.370544	-844.030396
5643.465034	354.352997	-47.156631	-827.198120
5643.468361	362.418457	-51.715370	-810.774963
5643.471696	370.951477	-56.917007	-793.825806
5643.475031	378.666260	-61.125076	-775.941528
5643.478363	386.381073	-65.333138	-759.576843
5643.481694	391.699585	-69.365868	-741.984802
5643.485050	398.128571	-72.989479	-724.275818
5643.488364	401.576843	-76.729980	-706.917603
5643.491693	406.544678	-79.827591	-690.143799
5643.495028	409.992981	-82.925194	-672.493286
5643.498364	413.032135	-85.379898	-656.128540
5643.501694	415.077728	-88.535942	-638.419617
5643.505032	417.064880	-90.815315	-621.762695
5643.508362	418.116882	-92.919350	-605.456482
5643.511691	419.285797	-95.023376	-588.974854
5643.515022	419.987122	-97.010521	-573.369934
5643.518363	419.987122	-98.763878	-558.057312
5643.521689	419.694916	-100.400352	-541.751038
5643.525022	418.876678	-102.036819	-526.438354
5643.528390	417.766205	-103.205727	-511.242554
5643.531690	416.538849	-104.608414	-495.111633
5643.535025	414.668579	-105.251312	-480.850952
5643.538352	412.213867	-106.537109	-466.005798
5643.541695	410.109894	-107.063118	-451.686737
5643.545022	407.304474	-107.706017	-437.893616
5643.548360	405.258911	-108.115143	-424.509644
5643.551687	402.921082	-108.582703	-410.658081
5643.555018	399.648132	-109.050262	-397.566345
5643.558415	396.199860	-108.699593	-383.773224
5643.561691	392.693146	-109.050262	-371.032135
5643.565022	388.777313	-109.167152	-358.758606
5643.568354	385.621277	-109.225601	-345.842194
5643.571725	381.646973	-108.758034	-332.984222
5643.575020	377.906464	-108.115143	-321.295135
5643.578360	373.756866	-108.348923	-309.547638
5643.581685	369.081238	-107.998245	-299.495026
5643.585014	365.340729	-107.413795	-289.383972
5643.588353	360.022186	-106.361771	-277.753357
5643.591682	355.638794	-105.368202	-268.343658
5643.595022	350.904724	-104.900642	-257.823486
5643.598348	347.105774	-103.965515	-249.056702
5643.601680	342.371704	-102.971947	-238.887207
5643.605014	337.579193	-102.036819	-231.347748
5643.608350	333.078888	-101.393921	-222.171814
5643.611683	328.695496	-99.582115	-213.112793
5643.615035	324.545868	-98.880768	-206.391571
5643.618346	319.753326	-97.478081	-198.267670
5643.621694	315.077728	-97.010521	-191.955597
5643.625019	310.928101	-96.250725	-185.059021
5643.628346	306.369354	-94.906487	-178.104034
5643.631684	301.810638	-93.386909	-172.493271
5643.635016	298.537689	-92.977791	-166.940979
5643.638346	294.563385	-92.042664	-161.154877
5643.641678	290.764465	-91.575104	-154.842773
5643.645007	287.199280	-90.347755	-149.874924
5643.648347	283.400360	-89.704849	-145.491516
5643.651682	280.361176	-88.477493	-139.880768
5643.655015	275.510223	-88.477493	-136.140259
5643.658366	272.880188	-86.899475	-132.341324
5643.661677	268.789001	-86.139679	-128.367035
5643.665009	264.697815	-85.029221	-124.158966
5643.668347	262.535339	-84.035652	-120.710693
5643.671673	258.911743	-83.684975	-115.918175
5643.675004	254.937485	-82.925194	-112.411453
5643.678343	252.015213	-81.931618	-109.021622
5643.681683	249.092926	-80.704269	-105.573349
5643.685007	246.404449	-80.762711	-102.300407
5643.688379	243.073059	-79.418465	-98.910576
5643.691672	240.033905	-78.892464	-95.929871
5643.695009	236.585632	-78.658684	-92.540031
5643.698346	234.130920	-77.548218	-89.676208
5643.701696	231.442444	-77.197548	-86.870834
5643.706297	225.656342	-75.151962	-80.734070
5643.709683	223.143188	-74.099945	-77.811806
5643.713028	220.045593	-73.515488	-75.006424
5643.716389	217.532440	-72.521919	-72.376389
5643.719704	214.610168	-72.112801	-69.512566
5643.722991	212.097015	-70.885445	-67.057861
5643.726379	209.525421	-70.184105	-65.187607
5643.729670	206.953827	-69.716545	-63.025131
5643.732605	205.200485	-68.781418	-60.979546
5643.735987	202.102875	-68.196960	-59.226181
5643.739626	199.940384	-67.437172	-57.472824
5643.742963	198.420807	-66.560493	-55.836353
5643.745896	196.667450	-65.917595	-53.556984
5643.749679	194.037415	-65.508476	-50.167152
5643.752605	192.050278	-64.748688	-48.881355
5643.755927	189.946228	-64.514900	-47.127995
5643.759206	188.777328	-63.346001	-45.433079
5643.762528	186.556412	-63.112213	-44.790180
5643.765854	184.919937	-62.761543	-44.322617
5643.769214	183.341919	-63.053772	-42.978374
5643.772531	182.348343	-62.177094	-41.809467
5643.775931	180.770309	-61.709526	-40.640560
5643.779308	179.426071	-61.300407	-39.939217
5643.782579	177.964935	-61.008186	-39.530098
5643.785859	177.146698	-60.599068	-38.594971
5643.789224	175.860901	-59.780830	-37.952072
5643.792505	174.166000	-59.488602	-37.426067
5643.795883	173.581543	-60.540619	-36.140266
5643.799203	172.237289	-59.547050	-36.081825
5643.802611	171.185272	-59.254822	-35.614258
5643.805926	170.250153	-58.611923	-35.380478
5643.809178	169.315018	-58.553482	-34.386909
5643.812530	168.321457	-58.495033	-33.860901
5643.815840	167.327896	-58.319695	-33.218002
5643.819198	166.801880	-57.618355	-32.165985
5643.822523	165.749863	-57.793694	-31.815313
5643.825926	165.282288	-57.384575	-31.873758
5643.829262	163.879608	-56.858559	-30.529514
5643.832551	163.061371	-57.326126	-30.003506
5643.835838	162.360031	-56.975456	-29.477497
5643.839181	161.132675	-56.274109	-29.535942
5643.842528	160.431335	-56.332558	-28.600817
5643.845858	159.846878	-56.040329	-27.899473
5643.849255	158.853317	-56.390999	-27.607246
5643.852579	158.268860	-55.923439	-26.905903
5643.855884	157.918182	-55.163651	-25.970776
5643.859171	157.158401	-55.689651	-25.736996
5643.862510	156.749283	-55.163651	-25.094095
5643.865854	156.515503	-55.748100	-24.743423
5643.869190	155.755707	-54.871422	-24.568089
5643.872111	154.995911	-55.046753	-24.334307
5643.875465	154.937469	-54.520752	-24.100525
5643.878835	154.411453	-54.637642	-24.042080
5643.882085	153.768555	-55.046753	-23.808298
5643.885420	153.651672	-54.228523	-22.873173
5643.888751	153.476334	-54.111633	-22.756283
5643.892079	153.184113	-54.403854	-22.288719
5643.895421	152.950333	-54.696083	-22.171829
5643.898764	153.242554	-54.929863	-23.282291
5643.902075	153.359451	-54.579193	-22.756283
5643.905427	153.125656	-54.871422	-23.808298
5643.908757	153.885452	-54.812973	-23.399181
5643.912090	153.593231	-55.105202	-23.749853
5643.915416	153.651672	-55.455872	-24.626534
5643.918777	154.294571	-55.514320	-24.743423
5643.922077	153.885452	-56.040329	-23.691408
5643.925408	155.346573	-55.923439	-25.269432
5643.928753	155.521927	-56.215660	-25.444769
5643.932074	155.872589	-56.274109	-25.736996
5643.935441	155.872589	-56.157219	-26.146112
5643.938763	156.983063	-56.741669	-26.730566
5643.942091	156.924606	-56.800117	-26.964348
5643.945452	157.275284	-57.676796	-26.379894
5643.948742	158.444183	-57.326126	-28.600817
5643.952066	158.561081	-57.443016	-28.483927
5643.955408	158.619537	-58.027473	-28.367037
5643.958746	159.671539	-59.021042	-28.834599
5643.962091	160.022217	-58.787262	-30.412622
5643.965410	161.366455	-59.780830	-31.406193
5643.968758	161.308014	-59.663940	-30.003506
5643.972088	161.892471	-60.014610	-30.529514
5643.975418	163.295151	-59.547050	-30.412622
5643.978766	163.119812	-59.956169	-31.230858
5643.982078	164.464066	-60.423729	-31.581532
5643.985404	164.522507	-61.183517	-32.341320
5643.988729	165.749863	-60.832848	-32.516655
5643.992099	166.977219	-61.066628	-33.042664
5643.995399	168.029236	-61.943306	-33.101112
5643.998733	168.672134	-62.410873	-34.386909
5644.002092	169.724136	-62.819992	-34.737579
5644.005420	170.542374	-63.404442	-35.380478
5644.008312	171.360611	-63.346001	-36.081825
5644.011672	171.886612	-63.813560	-37.250732
5644.014972	173.464645	-65.333138	-37.835182
5644.018312	175.218002	-65.274696	-38.828754
5644.021679	176.270035	-65.800697	-39.471653
5644.024973	177.438934	-66.677383	-41.751022
5644.028307	178.432495	-67.086502	-41.634132
5644.031638	180.594971	-67.963181	-43.329048
5644.034994	181.471649	-68.196960	-44.673290
5644.038309	184.101700	-68.781418	-45.608414
5644.041643	185.212173	-69.891876	-47.420219
5644.044974	187.433090	-70.593216	-49.348919
5644.048313	189.303329	-71.236122	-51.628288
5644.051640	191.232040	-72.229691	-52.972530
5644.054976	193.219177	-73.164818	-55.193455
5644.058306	195.264771	-73.983055	-56.829922
5644.061636	197.368790	-75.035072	-58.875511
5644.064975	199.297501	-76.203979	-61.037987
5644.068306	201.927536	-77.431328	-62.382233
5644.071660	204.382233	-78.424896	-64.427818
5644.074966	206.018707	-79.184685	-66.999413
5644.078301	208.531845	-80.236702	-69.980125
5644.081638	210.869659	-81.639397	-72.259499
5644.084968	213.032150	-82.749855	-74.597313
5644.088299	215.253067	-83.918762	-76.935127
5644.091636	217.649338	-84.795441	-80.032730
5644.094969	220.688477	-85.905899	-81.961426
5644.098302	222.441864	-87.308586	-85.234367
5644.101640	225.188782	-87.834602	-87.338394
5644.104966	227.935715	-88.945061	-89.851547
5644.108318	231.150223	-90.172409	-93.007599
5644.111637	233.838699	-91.867332	-96.163651
5644.114967	236.001175	-93.153130	-99.378143
5644.118292	238.572754	-94.088249	-102.066620
5644.121635	241.261261	-95.783165	-105.865570
5644.124959	244.066635	-96.075394	-109.255402
5644.128299	247.339584	-97.302742	-112.294563
5644.131655	249.385162	-99.348335	-116.268852
5644.134965	252.891876	-100.341904	-120.067795
5644.138293	255.755707	-101.393921	-123.983635
5644.141637	259.087067	-102.153709	-128.542374
5644.144962	261.424896	-104.316193	-133.217987
5644.148298	265.106964	-105.601990	-137.016937
5644.151650	268.730560	-107.530685	-141.751022
5644.154958	272.237274	-108.699593	-146.894211
5644.158300	275.101105	-109.810051	-152.212738
5644.161627	278.607819	-111.797195	-157.765045
5644.164966	282.991211	-112.907654	-163.492706
5644.168292	286.088837	-114.310341	-169.863220
5644.171623	289.712433	-116.239044	-176.467560
5644.174965	293.511383	-117.992401	-182.487427
5644.178292	297.368774	-119.278198	-190.143768
5644.181627	301.576843	-121.966682	-197.215668
5644.184960	304.966675	-123.310936	-205.456451
5644.188313	309.174744	-125.531853	-213.463470
5644.191624	312.915222	-126.700752	-221.295135
5644.194976	317.123291	-128.980133	-230.821747
5644.198292	320.630035	-130.791946	-239.004089
5644.201620	324.721191	-132.720642	-248.998230
5644.204957	328.578583	-134.649338	-258.057281
5644.208293	332.669769	-136.811798	-267.174744
5644.211622	336.936279	-139.032730	-277.753357
5644.214958	339.916992	-140.786087	-288.390411
5644.218289	344.008179	-142.247223	-298.501465
5644.221625	347.222656	-144.818817	-309.138489
5644.224954	351.313843	-146.279953	-320.476898
5644.228294	354.762115	-147.741089	-331.815308
5644.231640	358.035065	-149.494446	-343.913483
5644.234958	360.665100	-150.780258	-356.596130
5644.238286	363.938019	-152.592056	-368.811218
5644.241615	367.152527	-154.286972	-381.318512
5644.244959	370.600800	-155.280548	-394.001160
5644.248283	373.523071	-156.975464	-407.385132
5644.251614	376.094666	-157.852142	-420.535370
5644.254981	378.315582	-159.254822	-434.211578
5644.258285	379.659851	-160.482178	-448.472229
5644.261621	382.582092	-161.358856	-462.674438
5644.264954	383.809448	-162.410889	-476.935120
5644.268283	385.445923	-162.761551	-492.656921
5644.271619	386.439484	-164.514923	-507.385162
5644.274972	387.374634	-165.040909	-522.113403
5644.278283	388.660400	-165.333145	-539.646973
5644.281614	388.485077	-165.742264	-555.719421
5644.284950	388.601990	-166.677383	-572.376343
5644.288280	387.842194	-166.502045	-589.267090
5644.291612	386.030396	-166.560501	-608.028015
5644.294946	385.329041	-166.735840	-625.503235
5644.298278	383.517212	-166.268265	-643.504395
5644.301612	381.004089	-165.859161	-662.323792
5644.304952	378.198700	-164.865585	-680.500305
5644.308280	374.399750	-164.514923	-698.326111
5644.311611	370.133240	-163.112228	-717.905273
5644.314944	364.756287	-161.534195	-736.432495
5644.318318	359.554626	-160.365295	-755.661011
5644.321619	353.242554	-158.728821	-774.538879
5644.324951	345.995300	-156.274124	-792.306274
5644.328282	339.098755	-154.403870	-811.067200
5644.331612	330.273529	-151.306259	-829.419067
5644.334944	321.740479	-148.851547	-847.478638
5644.338280	312.038574	-145.637070	-864.895386
5644.341605	302.219757	-142.305679	-881.727600
5644.344940	290.764465	-138.682053	-898.092407
5644.348280	279.601379	-133.597321	-913.229675
5644.351612	267.269440	-129.389252	-928.893005
5644.354940	255.171249	-124.655174	-941.634094
5644.358274	242.488617	-119.570427	-956.186951
5644.361629	228.929276	-114.368790	-968.577393
5644.364937	214.668625	-108.758034	-979.448242
5644.368278	200.466400	-102.621269	-989.909973
5644.371604	184.686157	-97.185852	-1001.248352
5644.374944	169.724136	-91.399765	-1008.261780
5644.378275	153.768555	-84.620102	-1016.035095
5644.381608	138.455872	-78.892464	-1023.574585
5644.384936	121.915840	-71.236122	-1029.769775
5644.388276	106.252480	-64.807129	-1033.685669
5644.391611	89.420219	-58.085915	-1038.244263
5644.394935	72.880188	-50.371132	-1039.822388
5644.398275	55.580360	-42.948570	-1041.108154
5644.401609	38.981880	-35.526009	-1040.815918
5644.404973	22.091175	-27.811222	-1041.049683
5644.408265	3.973115	-20.037991	-1040.172974
5644.411606	-13.209820	-12.030977	-1037.367676
5644.414932	-30.568087	-3.907073	-1033.919434
5644.418268	-47.575684	3.983049	-1029.711304
5644.421604	-64.817070	11.054937	-1023.691406
5644.424940	-81.883118	19.120398	-1016.035095
5644.428266	-98.247810	26.601404	-1009.255432
5644.431606	-116.190529	34.549973	-1002.125061
5644.434954	-132.379898	41.563408	-992.014038
5644.438295	-148.627701	49.044418	-981.260132
5644.441602	-164.641724	56.525421	-970.739929
5644.444934	-180.831085	64.006424	-957.180603
5644.448295	-196.085312	71.195206	-944.147339
5644.451595	-210.696655	77.565750	-931.581482
5644.454931	-224.957321	85.105209	-917.788452
5644.458269	-238.049088	91.300407	-901.599060
5644.461597	-251.082413	98.021629	-885.701965
5644.464926	-263.472839	104.275276	-869.804749
5644.468267	-274.928101	110.295143	-852.446472
5644.471600	-286.967865	115.379890	-836.958496
5644.474926	-297.195801	120.581535	-819.483337
5644.478264	-306.780823	125.549385	-801.774353
5644.481595	-316.424316	130.458786	-785.234375
5644.484934	-324.431335	135.134415	-766.590271
5644.488263	-331.912354	139.693161	-749.290466
5644.491610	-338.458221	143.784332	-731.464661
5644.494925	-344.653442	147.641724	-714.281738
5644.498280	-351.082428	151.265335	-695.812927
5644.501596	-356.459412	154.187607	-679.156006
5644.504926	-361.193451	156.642319	-662.557556
5644.508260	-364.407959	158.512558	-644.556396
5644.511593	-367.856232	161.960831	-627.782593
5644.514924	-370.369385	163.655746	-611.008728
5644.518258	-372.298096	165.350662	-595.228516
5644.521596	-374.694336	166.987137	-580.324951
5644.524931	-375.220337	168.389832	-563.901794
5644.528254	-376.506165	169.500290	-548.296936
5644.531587	-377.265930	170.786072	-533.451782
5644.534940	-378.142609	170.961426	-518.489746
5644.538258	-377.733490	171.604324	-503.936890
5644.541596	-377.382812	171.604324	-489.208649
5644.544919	-376.856812	171.838104	-475.473999
5644.548253	-375.629456	171.487427	-461.037994
5644.551586	-374.577454	171.721207	-448.063110
5644.554922	-372.940979	171.545868	-434.679138
5644.558255	-370.603180	170.844528	-421.938049
5644.561646	-368.849792	169.909409	-407.502045
5644.564945	-367.505585	169.617172	-395.111633
5644.568257	-364.758636	169.091171	-383.539459
5644.571582	-362.479248	167.863815	-370.623016
5644.574922	-360.024567	167.045578	-358.641724
5644.578254	-357.511383	165.876663	-347.244873
5644.581589	-353.420227	164.766205	-335.380463
5644.584918	-351.433075	163.538864	-323.983643
5644.588255	-346.991241	162.253067	-313.931030
5644.591583	-343.893646	160.616592	-303.118652
5644.594937	-340.445374	159.213913	-292.072479
5644.598249	-337.347778	157.986557	-282.838104
5644.601587	-332.789001	156.350082	-272.785522
5644.604918	-329.808289	154.596710	-263.375793
5644.608253	-326.126251	153.661591	-253.907654
5644.611586	-322.151978	152.025116	-245.374634
5644.614918	-318.469910	150.505554	-237.192291
5644.618251	-314.086517	148.752182	-228.191711
5644.621621	-310.696655	147.057266	-219.483337
5644.624913	-306.605499	145.771469	-212.879028
5644.628249	-303.098785	143.784332	-205.748688
5644.631613	-298.540039	142.030975	-199.495026
5644.634913	-295.208649	141.037399	-193.475159
5644.638260	-291.117493	139.459381	-186.812378
5644.641575	-286.850983	138.407364	-180.149628
5644.644914	-283.344269	136.653992	-174.831085
5644.648247	-279.428406	134.959091	-168.577438
5644.651584	-275.980133	133.497955	-163.492706
5644.654913	-272.181183	132.270599	-158.700165
5644.658242	-268.849792	131.101685	-153.849213
5644.661579	-265.518433	129.465225	-149.115143
5644.664913	-262.596161	127.828758	-144.731735
5644.669580	-256.108704	124.789604	-135.555817
5644.672934	-252.601974	123.796028	-131.990646
5644.676241	-249.445938	122.276451	-127.373466
5644.679550	-246.991226	120.990654	-124.392746
5644.682950	-243.776733	119.704842	-120.418465
5644.686275	-240.445358	118.652840	-116.677963
5644.689576	-238.049088	118.243721	-113.112793
5644.692857	-235.068375	115.730568	-109.547638
5644.696200	-231.795441	114.620110	-106.566917
5644.699602	-229.282288	113.392754	-103.469315
5644.702944	-226.886032	112.282295	-100.956161
