time (s)	magX	magY	magZ
7718.630825	-229.340729	133.907059	-85.059029
7718.634163	-227.353607	132.796600	-83.188774
7718.637490	-225.483322	131.569244	-80.617180
7718.640830	-223.496201	130.984802	-79.039154
7718.644182	-221.158386	129.991226	-77.344238
7718.647521	-218.995911	128.530090	-75.941551
7718.650822	-217.593216	127.828758	-74.305084
7718.654155	-215.898300	126.367622	-72.142609
7718.657511	-214.378723	125.374046	-70.739914
7718.660827	-213.092926	124.555824	-69.687897
7718.664155	-210.579788	124.029808	-68.694328
7718.667493	-209.293961	122.744011	-67.350082
7718.670829	-207.715942	122.393333	-66.005844
7718.674162	-206.722382	121.049095	-64.603157
7718.677486	-204.793671	120.756874	-63.142021
7718.680822	-204.092346	119.938622	-62.323788
7718.684152	-201.929855	119.003502	-60.745762
7718.687510	-201.053177	117.776161	-59.576855
7718.690826	-200.118042	117.659264	-58.466393
7718.694150	-198.014023	116.665688	-58.057274
7718.697488	-197.429565	116.256569	-56.362362
7718.700823	-196.728226	114.970787	-55.076561
7718.704152	-195.734650	113.860313	-53.966103
7718.707512	-194.390427	113.392754	-52.914085
7718.710821	-193.864395	111.990059	-51.920513
7718.714153	-192.753937	112.282295	-50.868496
7718.717488	-192.403275	111.054939	-50.108707
7718.720816	-190.766785	110.528923	-48.530682
7718.724155	-190.299225	110.002930	-47.303329
7718.727481	-189.890121	108.658676	-47.478668
7718.730831	-188.545868	108.015778	-46.718876
7718.734153	-188.604324	107.723549	-45.491524
7718.737486	-186.909409	106.671539	-45.023964
7718.740816	-187.376968	106.613091	-44.264172
7718.744147	-186.617172	106.320862	-43.971947
7718.747481	-185.915833	105.853302	-43.621273
7718.750814	-186.091171	105.268852	-43.504383
7718.754146	-185.156036	104.976624	-43.270599
7718.757480	-184.688477	104.684395	-42.452366
7718.760812	-184.337814	104.275276	-41.984802
7718.764186	-184.571594	103.632385	-43.095264
7718.767516	-183.636459	104.333725	-42.744591
7718.770807	-183.285782	105.035072	-41.692577
7718.774149	-184.220917	104.041496	-42.160141
7718.777478	-183.753357	104.684395	-42.978374
7718.780809	-183.694916	104.158394	-42.335476
7718.784146	-183.811798	104.567505	-41.692577
7718.787481	-183.519577	104.158394	-42.686150
7718.790810	-183.519577	104.041496	-41.634132
7718.794143	-183.753357	104.392174	-42.452366
7718.797476	-183.694916	104.567505	-42.393921
7718.800811	-183.870255	104.333725	-42.744591
7718.804136	-183.402679	104.742844	-42.569256
7718.807481	-184.220917	105.268852	-42.803040
7718.810824	-184.513138	105.093521	-42.627701
7718.814140	-184.805374	105.444183	-43.913502
7718.817482	-185.331390	105.736412	-43.971947
7718.820806	-185.097610	105.561081	-44.205727
7718.824136	-186.208054	106.028641	-44.790180
7718.827486	-186.208054	106.671539	-44.381062
7718.830814	-186.909409	105.502632	-45.374634
7718.834138	-187.786087	106.320862	-45.959087
7718.837477	-188.487427	106.203979	-45.491524
7718.840806	-188.954987	106.145531	-45.842197
7718.844137	-189.539444	106.554642	-46.017532
7718.847472	-189.714783	106.613091	-46.777321
7718.850803	-190.649918	107.489769	-47.654003
7718.854174	-191.351257	107.255989	-48.121567
7718.857470	-191.994141	107.489769	-48.472237
7718.860807	-192.695496	107.781998	-49.115135
7718.864144	-194.448853	107.840446	-50.050262
7718.867473	-195.033310	108.424896	-51.043835
7718.870800	-195.617752	108.775574	-50.868496
7718.874135	-196.903564	108.950905	-52.329632
7718.877465	-198.423126	109.243134	-53.323200
7718.880800	-199.942719	109.418465	-54.258327
7718.884148	-201.053177	110.470490	-55.251900
7718.887472	-201.929855	111.405617	-56.479252
7718.890806	-202.806549	112.048515	-57.648159
7718.894138	-204.092346	111.814728	-58.875511
7718.897506	-205.495026	112.925194	-60.219753
7718.900801	-206.897720	113.275871	-61.447105
7718.904139	-208.651077	114.035652	-62.148453
7718.907463	-210.462891	115.438347	-63.083576
7718.910798	-211.924011	116.256569	-65.129166
7718.914134	-213.326691	116.665688	-66.707184
7718.917467	-215.722977	118.477501	-68.986557
7718.920800	-216.950333	119.178841	-69.454117
7718.924130	-218.469879	120.172401	-71.324371
7718.927462	-220.573929	121.399757	-72.960846
7718.930796	-222.502609	122.451790	-75.883110
7718.934127	-224.372864	123.328468	-77.402687
7718.937460	-226.535355	123.912926	-78.922272
7718.940815	-228.814728	126.016960	-82.136765
7718.944135	-230.217407	126.484520	-83.247223
7718.947471	-232.672119	128.646973	-85.409698
7718.950793	-234.834610	129.231430	-87.338394
7718.954128	-236.704849	130.341888	-90.845123
7718.957462	-239.510223	131.510803	-92.423141
7718.960793	-241.614243	132.796600	-95.111633
7718.964122	-244.594955	133.907059	-97.624779
7718.967466	-246.932785	135.368195	-100.021042
7718.970798	-249.387497	136.420212	-102.943314
7718.974130	-252.134415	137.121552	-105.105782
7718.977463	-254.296890	137.764465	-107.502045
7718.980794	-257.686768	139.517822	-111.300995
7718.984150	-259.907684	140.336060	-114.749268
7718.987454	-263.063721	142.264755	-118.489777
7718.990790	-266.278229	142.966095	-121.236702
7718.994123	-268.966705	144.544113	-124.392746
7718.997457	-272.181183	146.297470	-128.425476
7719.000789	-275.337250	146.648148	-131.581528
7719.004125	-278.493286	147.817062	-135.322037
7719.007460	-281.473999	149.570419	-139.237869
7719.010787	-284.688507	150.622437	-144.088837
7719.014152	-288.662781	152.375793	-148.706024
7719.017452	-291.877258	153.953827	-152.446533
7719.020787	-296.026886	155.648743	-157.180588
7719.024125	-298.247803	156.583862	-162.616013
7719.027472	-301.929871	158.395660	-166.940979
7719.030789	-305.553467	159.798355	-173.662170
7719.034117	-309.118652	161.727051	-178.513153
7719.037454	-313.385162	164.006424	-184.708344
7719.040781	-316.658112	165.993561	-190.436005
7719.044114	-320.924622	168.039154	-196.689636
7719.047453	-324.665100	169.792511	-203.644653
7719.050784	-328.171844	172.247208	-210.073639
7719.054122	-332.029236	174.234360	-217.729980
7719.057468	-335.535950	176.279953	-223.749847
7719.060786	-339.802460	177.682632	-231.464630
7719.064111	-344.185883	180.371124	-239.296326
7719.067455	-347.692566	182.066025	-246.601990
7719.070783	-352.017548	184.988312	-256.011688
7719.074121	-356.225616	186.800110	-263.843353
7719.077451	-360.375244	189.021027	-271.675018
7719.082076	-368.206909	192.527756	-290.669800
7719.085473	-372.239624	194.690231	-300.079498
7719.088839	-375.804810	196.268250	-309.547638
7719.092162	-379.895966	198.138504	-320.535370
7719.095457	-383.519592	199.774994	-330.997070
7719.098732	-388.195221	200.826981	-341.867920
7719.102116	-392.169495	202.989471	-352.855621
7719.105041	-395.325531	204.333725	-362.791321
7719.108782	-399.358307	205.677963	-374.305054
7719.111700	-402.981873	206.905304	-386.695496
7719.115041	-406.371704	208.366455	-399.436584
7719.118303	-410.229126	208.892456	-411.534760
7719.121625	-413.735840	209.652237	-424.977203
7719.124975	-416.774994	209.535339	-437.776733
7719.128306	-420.047913	210.587372	-451.745178
7719.131678	-422.677979	211.171829	-465.772064
7719.135067	-426.067810	211.113388	-480.149628
7719.138359	-428.288727	210.996490	-494.527161
7719.141684	-430.626556	210.996490	-509.722961
7719.144995	-432.438354	211.405594	-524.860291
7719.148282	-434.425476	211.171829	-542.744629
7719.151641	-435.185272	210.821167	-559.284607
7719.154993	-436.997101	210.996490	-574.012878
7719.158368	-438.692017	209.476913	-592.890686
7719.161713	-438.575104	209.126236	-609.606079
7719.165026	-438.282898	208.191116	-627.315002
7719.168308	-437.406219	208.015778	-645.374634
7719.171624	-437.289307	206.320862	-664.310913
7719.174960	-435.243713	204.450623	-682.896545
7719.178313	-433.022797	202.755692	-701.189941
7719.181640	-430.684967	200.943878	-720.652283
7719.185027	-427.528931	198.313843	-741.108093
7719.188394	-424.080688	196.443588	-759.752197
7719.191614	-420.164856	194.047333	-779.156006
7719.194950	-414.787842	190.657501	-798.793640
7719.198292	-408.826416	187.384567	-819.600220
7719.201650	-402.864990	183.877838	-839.763916
7719.204966	-396.494446	179.903564	-859.576782
7719.208346	-389.247223	175.461716	-880.091187
7719.211696	-381.415558	170.435410	-900.196350
7719.214952	-372.298096	165.409103	-919.892395
7719.218283	-364.349518	159.973694	-939.471619
7719.221623	-353.829346	153.544708	-959.810669
7719.224979	-342.841614	147.933960	-978.162476
7719.228293	-332.438354	140.452942	-997.274109
7719.231208	-320.632385	133.848618	-1014.924622
7719.234537	-309.527771	125.900063	-1033.159546
7719.237927	-296.377563	118.711281	-1049.816406
7719.241194	-282.935150	110.178261	-1067.583862
7719.244552	-269.609589	101.002342	-1083.013428
7719.247856	-255.290451	92.235535	-1098.618286
7719.251192	-240.620682	83.936302	-1114.749268
7719.254522	-225.424896	73.708359	-1128.600830
7719.257857	-210.053757	63.947983	-1141.867920
7719.261190	-194.156631	54.246056	-1153.556885
7719.264533	-176.856812	44.018112	-1166.414917
7719.267870	-160.258316	33.965515	-1178.922241
7719.271203	-142.198715	23.971361	-1188.390381
7719.274556	-123.554649	13.568087	-1196.748047
7719.277854	-105.611923	3.340151	-1205.865601
7719.281189	-86.850967	-6.712450	-1212.703735
7719.284520	-67.797783	-17.992403	-1218.489746
7719.287864	-48.393921	-28.629457	-1223.223755
7719.291183	-28.522501	-38.097603	-1227.548828
7719.294539	-9.644651	-47.857979	-1229.652832
7719.297871	11.512566	-57.326126	-1230.997070
7719.301197	32.143776	-67.144943	-1230.529541
7719.304581	51.839859	-76.203979	-1229.711304
7719.307851	72.061951	-84.853882	-1226.262939
7719.311193	92.400932	-93.971359	-1222.697876
7719.314510	111.804794	-102.679718	-1218.489746
7719.317888	132.377563	-110.511398	-1212.294556
7719.321178	151.313858	-118.459961	-1204.755127
7719.324518	170.250153	-126.466972	-1194.702515
7719.327865	189.011108	-133.188202	-1184.708374
7719.331211	207.129166	-141.429001	-1173.662231
7719.334531	224.896545	-147.916428	-1161.271729
7719.337866	241.436600	-154.228531	-1149.232056
7719.341186	258.093506	-160.832855	-1134.971313
7719.344512	273.581512	-166.618942	-1120.184692
7719.347885	289.069550	-172.346588	-1103.761475
7719.350751	302.687317	-177.840454	-1087.396851
7719.354093	316.714203	-182.574524	-1070.506104
7719.357424	329.864380	-187.425491	-1052.914062
7719.360760	341.495026	-192.276459	-1033.977783
7719.364088	352.833405	-197.010529	-1015.684448
7719.367419	363.821167	-200.517258	-997.800049
7719.370753	373.581512	-204.257751	-978.337769
7719.374085	382.231445	-207.822922	-959.459961
7719.377422	390.881348	-211.563431	-937.718323
7719.380751	398.654572	-213.784348	-919.015808
7719.384160	405.141998	-216.005264	-898.501404
7719.387425	411.337219	-218.518417	-879.156006
7719.390782	416.305084	-221.090027	-857.706543
7719.394084	422.792511	-223.252472	-837.426025
7719.397416	425.656342	-224.713623	-816.327271
7719.400746	430.331970	-226.116318	-797.741638
7719.404089	433.137360	-226.759216	-777.461121
7719.407414	436.059601	-227.928131	-757.765015
7719.410750	438.748108	-228.746353	-737.075378
7719.414085	440.092346	-228.863251	-716.736450
7719.417409	440.852142	-228.629456	-698.326111
7719.420746	443.423737	-229.097031	-677.811768
7719.424082	443.891266	-228.395691	-658.875549
7719.427414	443.891266	-227.986572	-639.880737
7719.430744	443.540588	-227.226776	-621.119812
7719.434096	444.066589	-225.999420	-602.943298
7719.437409	443.540588	-224.947403	-583.831665
7719.440748	441.787262	-223.018707	-566.473389
7719.444079	440.033905	-221.966690	-548.998230
7719.447415	438.455841	-220.856232	-531.172424
7719.450745	437.345398	-218.518417	-513.814148
7719.454076	434.949127	-216.414398	-498.092316
7719.457416	432.260651	-214.661011	-481.727661
7719.460747	430.682648	-212.264771	-465.187622
7719.464078	427.701935	-209.926956	-450.225586
7719.467413	424.721222	-207.063126	-435.146698
7719.470776	421.565186	-205.777328	-420.593811
7719.474074	418.116882	-203.147278	-405.222656
7719.477413	414.960846	-201.569260	-392.364685
7719.480746	411.220337	-198.880783	-379.156067
7719.484076	407.596710	-196.835190	-366.940948
7719.487404	403.856201	-194.380493	-353.615417
7719.490745	399.765045	-191.692001	-341.166565
7719.494071	396.082977	-189.412628	-330.646393
7719.497405	391.641144	-187.367035	-319.600250
7719.500747	388.426636	-184.561661	-309.196960
7719.504073	384.218567	-182.925186	-297.916992
7719.507410	379.835175	-180.762726	-288.857971
7719.510745	375.510223	-178.600250	-279.798950
7719.514112	371.652832	-176.496216	-270.330811
7719.517405	367.561646	-174.625961	-261.973114
7719.520745	362.476898	-172.580368	-252.504974
7719.524074	358.035065	-170.534775	-244.497955
7719.527406	353.943878	-168.956757	-236.607819
7719.530741	349.735809	-167.028061	-230.061951
7719.534075	345.819977	-164.865585	-221.353607
7719.537400	342.196381	-163.170670	-213.697235
7719.540737	338.046753	-160.891296	-207.151367
7719.544071	334.481567	-159.021042	-200.547058
7719.547405	329.572174	-157.326126	-194.877838
7719.550731	326.182343	-155.514328	-188.331970
7719.554070	322.383392	-153.877853	-182.312103
7719.557423	318.467560	-151.364700	-176.467560
7719.560735	315.779083	-149.786682	-169.687897
7719.564069	311.220337	-147.799545	-164.194046
7719.567403	307.362946	-146.163071	-159.109283
7719.570733	303.739319	-143.766815	-154.024551
7719.574069	299.589722	-142.071884	-148.413788
7719.577404	296.258301	-140.318527	-144.147278
7719.580733	293.219177	-138.506729	-139.939209
7719.584064	289.537109	-136.753372	-135.614258
7719.587399	286.497955	-134.415558	-130.821747
7719.590731	282.932800	-132.311508	-126.438339
7719.594066	279.542938	-130.207474	-122.113380
7719.597397	277.088226	-128.512573	-118.372879
7719.600751	273.289307	-126.876099	-115.333717
7719.604059	270.600800	-125.239616	-110.891876
7719.607390	267.795410	-123.603149	-107.209824
7719.610729	264.464050	-121.616013	-104.053772
7719.614065	261.541779	-120.388657	-101.189941
7719.617393	259.613098	-118.284630	-97.566330
7719.620734	256.690826	-117.057274	-94.877853
7719.624109	253.943893	-115.479248	-91.137344
7719.627396	251.664536	-114.661018	-89.267090
7719.630730	249.385162	-113.258331	-85.701927
7719.634056	247.398010	-112.206314	-83.656342
7719.637395	244.709534	-111.095848	-81.084747
7719.640730	242.605484	-110.160721	-78.805374
7719.644078	239.975449	-109.108704	-77.227356
7719.647397	237.696091	-107.998245	-75.649323
7719.650729	235.942719	-107.004677	-72.960846
7719.654056	234.130920	-106.186440	-71.558151
7719.657390	232.202209	-105.134422	-69.337227
7719.660721	230.331970	-104.316193	-67.992989
7719.664058	228.111053	-103.264175	-66.064285
7719.667391	226.474594	-102.913498	-64.252480
7719.670719	224.428986	-101.744598	-62.791351
7719.674073	223.260086	-101.043251	-61.271770
7719.677388	221.214508	-100.575691	-60.161308
7719.680718	220.162491	-100.400352	-59.226181
7719.684053	218.409134	-98.763878	-58.349503
7719.687418	217.064880	-98.062538	-57.063705
7719.690721	215.253067	-97.478081	-55.018116
7719.694057	214.610168	-97.244301	-54.141438
7719.697390	213.032150	-95.958504	-53.089420
7719.700719	211.863251	-95.783165	-51.569843
7719.704091	210.109879	-94.906487	-49.816483
7719.707381	209.291641	-94.322037	-48.706020
7719.710718	208.356522	-93.912910	-47.303329
7719.714052	207.655182	-93.153130	-46.601986
7719.717393	206.310928	-92.334892	-45.725307
7719.720720	205.200485	-91.516655	-44.497955
7719.724045	204.616013	-90.815315	-43.913502
7719.727388	203.096451	-90.347755	-43.445938
7719.730713	202.278198	-90.113968	-42.627701
7719.734048	200.933960	-89.529518	-41.049679
7719.737386	199.998840	-89.003510	-40.991234
7719.740720	199.589706	-88.302162	-40.465225
7719.744052	199.297501	-88.068382	-39.530098
7719.747408	198.011688	-87.308586	-38.302746
7719.750720	197.018112	-86.548805	-38.478081
7719.754046	197.018112	-85.789009	-37.659847
7719.757382	196.258331	-85.789009	-37.835182
7719.760719	195.264771	-85.438339	-36.607830
7719.764050	195.030991	-85.029221	-36.257160
7719.767384	194.563416	-85.730568	-36.374050
7719.770711	194.855652	-85.379898	-35.380478
7719.774044	193.920532	-84.210991	-35.438923
7719.777376	193.920532	-84.678551	-34.737579
7719.780717	193.569839	-84.503212	-34.503799
7719.784043	193.336060	-84.327881	-33.977791
7719.787374	193.628296	-84.386322	-34.094681
7719.790723	192.926956	-84.327881	-33.860901
7719.794048	193.043839	-84.094101	-34.620689
7719.797378	193.277618	-84.386322	-34.153126
7719.800710	192.985397	-84.035652	-34.620689
7719.804046	193.219177	-84.795441	-34.912914
7719.807387	192.693176	-84.912331	-34.971359
7719.810712	192.284058	-84.386322	-34.328461
7719.814039	193.803635	-85.146111	-35.205139
7719.817374	193.628296	-84.970772	-35.322033
7719.820711	193.862076	-84.970772	-35.497368
7719.824038	193.978958	-85.204559	-35.906487
7719.827401	194.446518	-85.730568	-36.257160
7719.830707	195.147873	-85.555229	-37.133839
7719.834046	195.615433	-86.198128	-36.607830
7719.837371	195.732330	-85.730568	-36.900059
7719.840709	196.433670	-85.905899	-37.718292
7719.844039	197.193466	-86.256569	-38.244301
7719.847372	197.076569	-86.607246	-37.952072
7719.850702	198.128586	-86.373466	-39.296318
7719.854042	199.063721	-86.957916	-39.237869
7719.857378	199.765060	-86.665695	-39.822327
7719.860706	200.641739	-87.074806	-39.880772
7719.864038	201.284637	-87.250145	-40.582115
7719.867374	202.511993	-86.957916	-41.575684
7719.870746	203.271774	-87.425476	-41.458794
7719.874037	204.440689	-87.367035	-42.335476
7719.877384	205.200485	-87.542366	-42.919930
7719.880697	206.194046	-88.185272	-43.445938
7719.884037	206.720047	-88.477493	-44.322617
7719.887373	208.122742	-88.711273	-44.439507
7719.890700	208.824081	-88.945061	-45.433079
7719.894034	210.577438	-89.821739	-46.952660
7719.897362	211.687912	-89.763298	-47.244884
7719.900706	213.090607	-90.230858	-48.296902
7719.904031	214.084167	-90.523087	-50.108707
7719.907361	215.720627	-91.516655	-50.634716
7719.910696	216.655746	-92.393333	-51.511395
7719.914053	218.642899	-92.334892	-53.440094
7719.917365	220.045593	-93.094681	-56.070133
7719.920706	221.506729	-93.445351	-57.589714
7719.924031	223.552322	-94.380478	-58.817066
7719.927363	224.838104	-95.081818	-60.219753
7719.930707	226.883698	-95.666275	-62.031559
7719.934036	228.753952	-97.010521	-63.726475
7719.937364	230.799530	-97.711861	-65.129166
7719.940693	232.786682	-98.822327	-66.882523
7719.944029	235.416718	-99.172997	-69.337227
7719.947365	237.111633	-100.400352	-70.681473
7719.950690	239.507889	-100.926361	-73.311516
7719.954029	241.670364	-101.978378	-74.655754
7719.957360	243.657516	-103.439507	-77.110458
7719.960689	246.053757	-104.082405	-79.331383
7719.964041	247.982468	-105.601990	-81.961426
7719.967357	250.904739	-106.244881	-84.708359
7719.970691	253.768555	-107.355347	-87.747513
7719.974019	255.697266	-108.232033	-89.676208
7719.977358	258.794830	-109.576271	-92.247803
7719.980698	260.665100	-110.452950	-94.877853
7719.984021	263.587372	-110.686737	-98.209229
7719.987424	266.100494	-111.621857	-101.832840
7719.991957	272.003479	-113.842781	-107.385155
7719.995335	275.159546	-115.070129	-111.125656
7719.998718	278.841583	-115.420799	-114.164810
7720.002079	281.179413	-116.005257	-118.255989
7720.005385	284.919922	-117.641731	-120.593803
7720.008726	288.075989	-118.401527	-125.152542
7720.012034	291.290466	-119.219749	-128.367035
7720.015327	293.920502	-120.680885	-132.925781
7720.018705	297.076569	-121.440681	-136.607834
7720.022035	301.167725	-122.258911	-140.523666
7720.024978	304.440674	-123.603149	-146.017532
7720.028274	308.765625	-124.713623	-150.810059
7720.031970	312.389221	-125.999413	-155.777893
