time (s)	magX	magY	magZ
9618.597095	177.445358	-118.748688	92.317360
9618.600423	179.490936	-120.209824	95.473396
9618.603753	182.354767	-121.437164	98.454124
9618.607108	184.458801	-122.021622	101.668617
9618.610443	186.504395	-122.781418	105.000008
9618.613755	189.601990	-123.891876	107.980705
9618.617088	191.822922	-124.710114	110.844536
9618.620435	194.043839	-126.171242	114.117470
9618.623751	196.790771	-126.814148	118.208656
9618.627085	199.537704	-128.450623	121.890709
9618.630421	201.466400	-129.502625	124.579201
9618.633756	204.213333	-130.671539	128.787262
9618.637083	206.901825	-131.723557	132.586212
9618.640424	209.414963	-133.243134	137.086487
9618.643755	211.811234	-133.886032	141.002350
9618.647077	214.733505	-135.639389	144.742828
9618.650437	217.129745	-137.392761	149.126251
9618.653751	220.227356	-138.094101	153.217407
9618.657083	222.506729	-138.853882	157.659271
9618.660411	225.545883	-140.548798	161.867340
9618.663752	227.825256	-141.250137	167.010529
9618.667076	230.221512	-142.828171	172.562805
9618.670420	233.436005	-144.113968	176.887787
9618.673744	236.475174	-145.867325	182.264771
9618.677083	239.514328	-146.977783	188.109283
9618.680468	242.319702	-147.737579	193.720032
9618.683748	246.001770	-148.906494	200.850372
9618.687085	248.865570	-149.841614	206.110443
9618.690417	251.554077	-150.542953	213.299225
9618.693778	254.827011	-152.296310	220.312653
9618.697084	257.983063	-152.939224	227.735229
9618.700412	261.314423	-153.991226	235.450043
9618.703742	264.587372	-154.926361	244.158386
9618.707101	267.451202	-155.686142	252.048492
9618.710406	270.315002	-156.153717	259.763275
9618.713741	273.587952	-157.147278	269.173004
9618.717079	276.977783	-157.381073	277.589142
9618.720414	280.659851	-157.965515	287.875519
9618.723746	283.056091	-158.140839	297.635895
9618.727072	286.971924	-158.725311	307.337799
9618.730410	289.952637	-158.783752	317.682617
9618.733738	292.641144	-158.433075	328.202789
9618.737092	296.089417	-158.666855	339.190521
9618.740407	299.070129	-158.549973	350.236664
9618.743737	301.115723	-158.199295	361.458191
9618.747071	304.388641	-157.381073	373.205719
9618.750408	306.200470	-156.971939	384.719452
9618.753739	309.298065	-156.212158	396.583862
9618.757075	311.460541	-154.984802	408.798950
9618.760412	312.746338	-154.692581	420.663330
9618.763738	314.382812	-153.231445	434.631805
9618.767073	316.019287	-152.296310	446.613098
9618.770409	317.480408	-150.893631	459.646393
9618.773741	318.181763	-149.666275	471.803009
9618.777075	319.000000	-147.620682	484.076569
9618.780420	320.168915	-146.042664	497.811188
9618.783737	321.045563	-144.113968	510.902924
9618.787073	320.519562	-141.600815	523.585632
9618.791749	319.701355	-137.743423	549.710693
9618.795106	318.357086	-135.113388	563.620728
9618.798451	317.480408	-131.606659	577.180054
9618.801784	315.902374	-128.392166	590.096497
9618.804699	313.506134	-125.236115	602.720642
9618.808412	311.518982	-121.437164	616.689087
9618.811752	308.888947	-117.696663	629.780884
9618.814691	305.615997	-113.780830	643.690857
9618.818002	302.167725	-108.988312	655.905945
9618.821664	298.485657	-104.371124	669.640564
9618.824615	294.394501	-99.052597	682.381653
9618.827920	289.251312	-93.383400	694.596802
9618.831273	284.400360	-87.597313	707.513184
9618.834607	278.672699	-81.343658	719.552917
9618.838008	273.471039	-74.797775	730.949768
9618.841341	266.165375	-67.024544	742.112854
9618.844586	259.093506	-60.654003	754.094055
9618.847923	252.372314	-52.763878	763.445312
9618.851245	244.131516	-45.165985	774.140869
9618.854603	235.247818	-36.223846	782.907654
9618.857936	227.533020	-28.099941	793.077148
9618.861394	217.831100	-18.573349	800.090637
9618.864660	208.421387	-8.929866	807.688477
9618.868021	198.018127	0.713618	814.175964
9618.871250	187.497955	10.064874	819.903625
9618.874572	176.802460	19.357689	824.462341
9618.877904	166.048508	29.059616	828.904236
9618.881275	154.885452	38.177090	832.527771
9618.884624	142.728821	48.405025	836.385193
9618.887979	131.215088	58.165398	836.852722
9618.891327	118.473991	67.458214	837.612488
9618.894574	107.486267	76.692581	838.430725
9618.897914	94.452950	85.868500	836.969604
9618.901251	82.939217	95.628876	836.034546
9618.904604	70.548805	104.337234	834.456482
9618.907936	58.392166	114.039162	831.008179
9618.910900	46.293983	122.513733	827.969055
9618.914188	34.254238	130.579193	823.293457
9618.917502	22.272940	139.053772	819.026917
9618.920918	9.531853	147.060776	812.831726
9618.924160	-2.741671	154.950912	807.454712
9618.927480	-14.021626	161.847458	800.032166
9618.930805	-25.944475	169.094681	792.843384
9618.934148	-37.399765	175.874344	785.070190
9618.937486	-48.504379	183.238464	776.653992
9618.940808	-59.609001	189.609009	767.711853
9618.944151	-70.362953	195.453522	758.594360
9618.947515	-80.532440	201.356506	748.249573
9618.950840	-90.994156	207.259491	737.671021
9618.954200	-101.046753	212.928711	727.209229
9618.957478	-111.040916	218.130325	715.461731
9618.960812	-119.866158	222.747528	703.655762
9618.964143	-129.100525	226.721786	691.265320
9618.967488	-137.575089	231.163651	679.810059
9618.970803	-146.341904	235.371719	666.367615
9618.974140	-153.939804	238.586212	654.035645
9618.977480	-161.362350	242.268250	641.119263
9618.980827	-168.668030	245.891876	627.910645
9618.984172	-175.506134	248.638794	614.117493
9618.987544	-182.052002	251.327301	600.908875
9618.990814	-188.013443	253.781982	586.472839
9618.994138	-193.215073	255.827606	572.445984
9618.997517	-198.884277	257.054932	557.659302
9619.000808	-203.559906	258.632965	543.457092
9619.003712	-208.001740	258.691406	529.079468
9619.007047	-211.859131	260.327881	515.461731
9619.010382	-215.424301	260.386322	502.428436
9619.013719	-217.995911	260.678558	488.985931
9619.017052	-221.268845	261.204559	475.718842
9619.020379	-223.372864	260.503235	462.159576
9619.023716	-225.535355	260.035675	449.301544
9619.027045	-227.931625	259.334320	437.086517
9619.030383	-229.042084	258.340759	424.462280
9619.033708	-230.912338	257.405609	411.779663
9619.037045	-232.373459	255.243134	399.739899
9619.040408	-232.490356	253.489777	386.823486
9619.043713	-233.367050	251.619537	376.595581
9619.047047	-234.185272	249.632385	366.075409
9619.050374	-234.477493	247.352997	355.146088
9619.053723	-234.302170	245.015198	345.035065
9619.057042	-234.828171	242.911179	334.982452
9619.060370	-234.945068	240.456467	324.988281
9619.063707	-234.652832	237.884857	316.396820
9619.067036	-233.074814	235.021042	306.578003
9619.070368	-233.133255	232.624771	296.992981
9619.073711	-232.548782	229.877853	288.518402
9619.077043	-231.672119	227.598480	280.219177
9619.080373	-230.678543	224.676208	272.153717
9619.083723	-229.801880	221.695496	264.205139
9619.087040	-228.574524	218.773224	256.081207
9619.090372	-227.814728	216.084747	248.366455
9619.093702	-226.528931	213.688492	240.768555
9619.097041	-224.892456	210.064865	231.943298
9619.100373	-223.606659	207.434830	225.631226
9619.103713	-222.028641	204.454117	218.325531
9619.107035	-219.983032	201.648743	210.961426
9619.110372	-218.229675	198.960266	205.350647
9619.113704	-215.541199	196.856216	197.986572
9619.117042	-214.372284	192.648148	191.323792
9619.120406	-213.086487	190.251907	185.946808
9619.123705	-210.631775	187.738754	179.810059
9619.127040	-208.586197	184.991821	173.731750
9619.130367	-206.774399	182.186447	167.770325
9619.133704	-204.144363	180.199310	162.159546
9619.137030	-202.157211	176.400360	157.133240
9619.140369	-200.053177	173.945648	151.230255
9619.143703	-198.299820	172.250732	146.963776
9619.147035	-195.377548	169.036240	141.937469
9619.150372	-193.565750	166.347748	136.969604
9619.153700	-191.987717	164.009933	132.177094
9619.157033	-189.883682	162.081238	127.676796
9619.160370	-187.195206	159.217422	123.760963
9619.163710	-184.565155	157.113388	119.202232
9619.167084	-182.870255	154.132675	115.286385
9619.170372	-180.824661	152.496201	112.247231
9619.173701	-178.662186	150.450623	108.156044
9619.177030	-177.668610	147.937469	104.006432
9619.180361	-175.155457	146.008774	102.077736
9619.183696	-173.460541	144.196960	99.155464
9619.187030	-172.116302	141.917587	95.356514
9619.190361	-170.246048	140.105789	92.726479
9619.193698	-168.784912	138.001755	90.330208
9619.197028	-166.739319	136.248383	88.226189
9619.200361	-165.278183	134.085922	85.362358
9619.203699	-163.933945	132.917007	83.258324
9619.207054	-162.998825	130.579193	79.926933
9619.210356	-161.303909	128.475159	78.933372
9619.213700	-160.076569	126.897141	76.653999
9619.217034	-157.972519	125.552902	74.199303
9619.220363	-156.803619	123.741089	71.803040
9619.223691	-154.933365	122.513733	70.049675
9619.227033	-154.290466	121.227936	68.997665
9619.230364	-152.595551	119.065460	67.185860
9619.233696	-150.842194	117.955002	64.555817
9619.237061	-150.549973	116.376984	63.211571
9619.240356	-148.504379	114.623611	61.808876
9619.243693	-147.569260	113.279373	59.763298
9619.247026	-147.043243	111.935127	58.652840
9619.250363	-145.231445	110.707779	56.431908
9619.253691	-144.004089	109.363533	54.795441
9619.257028	-142.893631	107.902397	53.801865
9619.260353	-142.016937	106.558159	52.691406
9619.263689	-140.731155	105.038574	50.996490
9619.267019	-139.386902	104.337234	48.834023
9619.270356	-138.101105	103.343658	47.898895
9619.273693	-136.406189	102.408531	45.911751
9619.277018	-134.945053	101.298073	44.976624
9619.280355	-134.185272	100.538284	43.866158
9619.283682	-133.659256	99.369377	43.281708
9619.287020	-132.431900	98.668030	41.820572
9619.290350	-131.496780	97.499123	40.417885
9619.293685	-130.795441	96.096436	39.541206
9619.297017	-129.451202	94.810631	38.021622
9619.300359	-128.574509	94.459969	37.437172
9619.303721	-127.873177	93.641724	36.618935
9619.307022	-126.938042	92.881943	35.976036
9619.310352	-126.353600	92.531265	34.281120
9619.313687	-125.827583	91.479256	33.696671
9619.317019	-125.243141	90.602570	33.404442
9619.320352	-124.424904	90.251900	32.527763
9619.323713	-124.191124	89.901222	31.534187
9619.327018	-122.963768	88.966103	31.651077
9619.330351	-123.139091	88.732315	31.183517
9619.333684	-122.554649	88.030975	30.715958
9619.337028	-121.911751	87.154297	29.956169
9619.340347	-121.853310	86.745178	30.131500
9619.343678	-122.028633	86.394501	30.657509
9619.347019	-120.976631	85.926941	30.189949
9619.350347	-120.625954	85.050262	30.482170
9619.353702	-120.684395	85.050262	29.313271
9619.357012	-120.684395	84.407364	29.137932
9619.360349	-120.392174	83.706017	28.553482
9619.363680	-120.333717	84.173584	28.845703
9619.367015	-119.515495	83.413795	28.553482
9619.370349	-119.924599	82.829346	27.735237
9619.373727	-119.807716	82.654007	27.910576
9619.377021	-120.216835	82.244888	28.027473
9619.380349	-119.983055	82.303329	27.852127
9619.383678	-119.690819	81.952660	28.144363
9619.387009	-119.398598	81.192871	27.910576
9619.390347	-119.515495	81.543549	27.443016
9619.393677	-119.398598	81.543549	27.384567
9619.397037	-119.106377	81.134422	27.092346
9619.400342	-118.989479	80.842201	27.267677
9619.403674	-119.398598	80.666862	27.852127
9619.407011	-119.281715	80.199303	27.559906
9619.410348	-119.164818	80.549973	27.209236
9619.413680	-119.340157	80.433083	27.209236
9619.417009	-119.340157	79.556404	27.326126
9619.420337	-119.281715	78.913498	27.618347
9619.423669	-119.223259	79.147285	27.092346
9619.427006	-119.632378	79.848625	27.092346
9619.430337	-119.515495	79.322624	27.443016
9619.433667	-119.749275	79.614845	26.975456
9619.437002	-119.866158	79.556404	26.390999
9619.440347	-119.924599	79.731735	26.566330
9619.443671	-120.333717	79.381065	26.566330
9619.447007	-120.509071	79.673294	26.741669
9619.450359	-120.742851	79.322624	27.267677
9619.453669	-121.151955	79.556404	27.033897
9619.457007	-121.736412	80.082405	28.144363
9619.460339	-122.671532	80.433083	28.085915
9619.463673	-122.963768	80.140854	27.735237
9619.467002	-123.080666	80.374641	27.969025
9619.470337	-124.132668	80.316193	28.495033
9619.473666	-124.775581	80.900642	29.196373
9619.477034	-125.360023	81.485100	29.897720
9619.480331	-126.061363	81.952660	30.657509
9619.483674	-127.113396	81.426651	31.125076
9619.486998	-127.697838	81.894218	31.767967
9619.490331	-128.574509	82.011108	32.293983
9619.493671	-129.684982	82.244888	33.462891
9619.496998	-130.912323	82.595558	33.521332
9619.500329	-131.964340	83.004677	35.157799
9619.503661	-132.782578	82.712448	35.157799
9619.507001	-133.893036	83.004677	35.859146
9619.511725	-136.055527	84.991814	37.612511
9619.515020	-136.464630	85.050262	38.839859
9619.518384	-138.510223	84.874924	39.482758
9619.521383	-139.211563	85.810051	39.365868
9619.525015	-140.029800	86.277611	41.820572
9619.528352	-141.900055	86.745178	42.171249
9619.531292	-143.068954	87.388077	42.638809
9619.534644	-143.887192	87.621857	43.807716
9619.538265	-144.997665	88.556984	45.561073
9619.541625	-146.166565	88.966103	46.087082
9619.544587	-147.277023	89.609009	46.788422
9619.547868	-148.445938	90.193451	48.074226
9619.551213	-149.381058	90.777916	49.243134
9619.554643	-151.075974	91.187027	50.002930
9619.557908	-152.244888	91.654587	51.405617
9619.561173	-153.706024	92.648163	52.165398
9619.564555	-155.459366	92.881943	54.152542
9619.567843	-156.628281	93.758621	55.613678
9619.571214	-158.206299	95.219757	56.665688
9619.574537	-159.901215	95.570427	57.367035
9619.577944	-161.537689	96.330215	59.646408
9619.581311	-163.466385	97.090012	61.165985
9619.584546	-165.102859	97.323792	62.276443
9619.587832	-167.089996	98.200470	63.386909
9619.591173	-168.843353	98.901810	65.724724
9619.594534	-170.888947	99.895386	68.413208
9619.597877	-172.759201	101.414955	70.926361
9619.601268	-175.389236	101.707191	72.504387
9619.604596	-176.967270	102.525429	74.725319
9619.607961	-179.538864	103.811218	77.472237
9619.611166	-181.818222	104.512566	80.452950
9619.614510	-183.571594	105.389252	83.550560
9619.617842	-186.084747	106.207481	85.303917
9619.621217	-189.240799	107.843948	88.985970
9619.624528	-191.929276	109.012856	91.090004
9619.627467	-194.442413	109.363533	94.421394
9619.631259	-196.955566	109.947983	98.687904
9619.634124	-199.760941	111.175339	101.727058
9619.637416	-202.800110	112.110466	104.707771
9619.640737	-205.722382	113.162476	108.448280
9619.644092	-208.235535	114.039162	111.954994
9619.647414	-210.514908	114.448280	115.695488
9619.650777	-214.080048	115.734085	119.728233
9619.654067	-216.593216	116.610764	123.351845
9619.657414	-219.398605	117.312103	127.267677
9619.660769	-222.437744	118.773239	132.644653
9619.664098	-225.827576	119.591461	137.378723
9619.667423	-227.639389	120.643494	141.294556
9619.670793	-230.912338	121.344833	145.385742
9619.674071	-233.776138	121.929276	150.704285
9619.677408	-236.581528	123.156631	155.847473
9619.680746	-239.328461	123.799530	160.289307
9619.684070	-242.776733	124.383987	165.724701
9619.687400	-245.699020	125.202225	171.393921
9619.690736	-248.562820	125.962006	177.180023
9619.694107	-251.894211	126.897141	181.855652
9619.697428	-254.232040	128.066040	186.823486
9619.700759	-257.621857	128.650497	192.668030
9619.704098	-261.303925	129.702515	198.804779
9619.707446	-263.700195	130.111633	204.766205
9619.710735	-266.856232	130.462311	212.364105
9619.714076	-270.246063	130.988312	218.325531
9619.717396	-273.811249	131.689667	226.274109
9619.720729	-277.201050	132.098770	233.229095
9619.724072	-280.064880	132.566330	240.651642
9619.727398	-283.396271	132.391006	248.483337
9619.730313	-286.727661	132.917007	256.431915
9619.733644	-289.825256	133.326126	265.023376
9619.736988	-292.747528	133.209229	273.673309
9619.740311	-296.721802	132.449432	283.141418
9619.743642	-300.111633	132.449432	291.849792
9619.746970	-302.449463	132.040329	301.259491
9619.750307	-305.663940	131.631210	311.838104
9619.753642	-308.936890	131.338989	321.540009
9619.756970	-311.333160	129.760956	332.878418
9619.760304	-314.606079	128.358276	343.106354
9619.763636	-316.826996	127.189362	354.444763
9619.766970	-319.573944	125.260666	366.309174
9619.770311	-321.561096	123.799530	378.524231
9619.773638	-324.483337	121.344833	389.570404
9619.776977	-326.353607	118.948578	400.967285
9619.780340	-327.639404	116.786087	414.117462
9619.783636	-329.392761	114.097595	427.384552
9619.786975	-330.737000	111.876678	438.722961
9619.790301	-332.022797	107.960846	451.522522
9619.793636	-332.198151	104.804794	464.731171
9619.796972	-332.899506	101.181175	477.530670
9619.800309	-333.659271	97.966690	490.797760
9619.803630	-333.483917	94.284637	503.947968
9619.806968	-333.600830	89.609009	517.331970
9619.810297	-332.607269	86.102280	530.949768
9619.813633	-331.964355	81.543549	543.807739
9619.816972	-330.970795	76.984802	557.074829
9619.820318	-329.042084	72.016953	570.575745
9619.823670	-327.347168	67.049095	583.784363
9619.826963	-324.717133	62.431915	596.467041
9619.830307	-322.203979	56.002922	610.435425
9619.833632	-319.281708	50.450615	623.936340
9619.836968	-314.839874	44.313850	636.911194
9619.840296	-311.157806	38.878433	649.827637
9619.843629	-307.066620	31.338985	662.218018
9619.846966	-302.975464	25.436005	674.900696
9619.850299	-297.598511	18.305668	686.940369
9619.853633	-292.689087	11.233781	699.506165
9619.856964	-286.143188	3.518996	710.318542
9619.860293	-280.240234	-3.903565	723.001221
9619.863624	-273.460541	-11.618352	734.456482
9619.866990	-265.395081	-20.443600	745.444214
9619.870296	-257.914093	-29.561077	756.256653
9619.873630	-250.433060	-38.094097	766.426025
9619.876961	-241.490936	-47.094681	776.244873
9619.880288	-233.250153	-55.919930	786.122192
9619.883626	-224.191116	-65.329636	793.953857
9619.886967	-214.664505	-74.973114	802.837524
9619.890297	-204.553467	-84.441261	809.500244
9619.893624	-194.208649	-93.909409	817.273560
9619.896965	-183.922256	-103.845123	823.994812
9619.900291	-172.350082	-113.430161	828.611877
9619.903626	-160.836349	-122.722969	832.761536
9619.906958	-148.913498	-132.541794	837.554138
9619.910317	-137.575089	-142.302170	839.833435
9619.913623	-125.827583	-151.419632	842.463440
9619.916958	-113.612511	-160.420227	844.099976
9619.920292	-100.988319	-170.005264	844.099976
9619.923627	-88.481010	-178.421387	843.106445
9619.926959	-76.791939	-187.071304	840.943970
9619.930292	-64.109299	-195.487442	839.365906
9619.933618	-51.835770	-203.903564	836.209839
9619.936956	-39.386909	-210.390991	831.534241
9619.940322	-27.405611	-217.755127	828.085937
9619.943621	-15.424313	-224.476334	822.358276
9619.946956	-4.085915	-230.320862	817.507324
9619.950310	8.129165	-236.340729	811.019836
9619.953616	19.876680	-241.834595	803.422058
9619.956951	31.156633	-246.744003	796.525452
9619.960287	41.676796	-251.594971	787.466370
9619.963618	52.547630	-255.861496	778.641174
9619.966948	62.424896	-260.303345	768.822327
9619.970287	73.237289	-263.926941	758.945068
9619.973622	82.530098	-267.725891	748.950928
9619.976950	91.764458	-270.531281	737.963196
9619.980284	100.589706	-273.102844	727.969055
9619.983634	109.298065	-275.849792	715.695557
9619.986952	118.240211	-278.012268	703.831116
9619.990279	125.604317	-279.940948	691.265320
9619.993618	134.254242	-282.045013	678.816528
9619.996949	141.267685	-283.330780	666.484558
9620.000280	148.690247	-284.149017	653.626526
9620.003617	154.710129	-285.785492	640.008789
9620.006949	160.437759	-286.136169	627.092346
9620.010280	166.925201	-286.662201	612.597900
9620.013631	172.360611	-287.246643	599.097046
9620.016952	177.679138	-287.421997	585.070129
9620.020277	181.887207	-287.305084	571.277039
9620.023612	186.445953	-286.545288	557.483948
9620.026955	190.770889	-286.019287	542.814148
9620.030278	194.745193	-285.843933	528.495056
