time (s)	magX	magY	magZ
7017.297956	104.549980	-200.460541	-55.273525
7017.301289	105.718880	-201.980133	-58.312683
7017.304638	106.770897	-203.967270	-60.416718
7017.307988	109.050262	-205.662186	-61.702515
7017.311259	109.985390	-207.766220	-64.332558
7017.314593	111.621857	-209.578018	-65.969025
7017.317948	113.901237	-211.331375	-67.956169
7017.321256	115.070145	-212.967850	-70.060196
7017.324591	116.881943	-214.370544	-71.872009
7017.327925	118.752197	-215.714783	-73.040909
7017.331257	119.921104	-217.234360	-74.209824
7017.334635	121.206894	-218.052597	-76.722969
7017.337946	123.018707	-219.689056	-78.242554
7017.341303	124.304497	-221.267090	-79.236122
7017.344631	126.408531	-222.786667	-81.047928
7017.347955	128.161896	-224.189362	-82.450615
7017.351251	130.032150	-225.825836	-84.145531
7017.354588	132.369965	-227.812958	-85.723557
7017.357915	134.298660	-228.864975	-87.593811
7017.361262	136.052017	-230.559906	-88.938049
7017.364589	136.578018	-232.079483	-90.925186
7017.367915	138.740509	-234.008179	-93.263000
7017.371307	140.376968	-236.579773	-95.659264
7017.374610	142.071899	-238.625366	-97.997078
7017.377943	143.766815	-241.196945	-101.211578
7017.380859	145.987732	-243.593216	-104.426071
7017.384200	148.033310	-246.515488	-108.108124
7017.387494	149.728226	-249.203964	-111.497955
7017.390844	151.481598	-252.476913	-115.530685
7017.394161	153.234955	-256.042084	-120.206314
7017.397495	155.864990	-258.789032	-125.115723
7017.400822	157.676788	-262.587952	-130.258911
7017.404166	159.722397	-266.270020	-135.811218
7017.407490	162.527771	-269.776733	-140.954422
7017.410824	164.924026	-273.575684	-147.558746
7017.414158	167.203400	-278.017548	-153.578613
7017.417486	170.300995	-281.115143	-160.942719
7017.420824	172.989471	-285.557007	-167.722382
7017.424153	175.677963	-288.946808	-176.606079
7017.427491	178.717133	-293.213348	-183.970200
7017.430824	181.464050	-297.246063	-191.451202
7017.434163	184.795441	-300.869659	-200.276459
7017.437484	188.068375	-305.545288	-208.692581
7017.440818	191.282883	-308.233765	-216.816483
7017.444173	195.081833	-311.974304	-225.349503
7017.447508	198.880768	-315.597900	-233.940979
7017.450820	202.036819	-319.572174	-242.532440
7017.454152	206.128006	-323.195801	-251.182343
7017.457486	209.868500	-326.293427	-259.540009
7017.460826	212.907669	-329.332550	-268.131500
7017.464150	217.407959	-332.897736	-276.781403
7017.467488	221.206894	-335.995331	-285.080658
7017.470817	225.064285	-338.391571	-293.438324
7017.474150	229.038589	-341.138519	-301.854492
7017.477487	233.947983	-344.236145	-310.855042
7017.480816	238.097610	-346.632385	-320.615417
7017.484151	242.305679	-349.379333	-329.908234
7017.487482	245.929276	-351.950928	-339.317932
7017.490815	249.319107	-354.347168	-349.312103
7017.494145	252.825851	-356.626556	-359.481598
7017.497479	256.916992	-359.841034	-370.703094
7017.500816	260.715942	-362.412628	-381.340179
7017.504144	264.807129	-365.334900	-393.905884
7017.507482	268.138519	-367.672729	-405.653412
7017.510863	271.645233	-369.952087	-420.089447
7017.514192	275.444183	-372.874359	-434.291656
7017.517480	278.541779	-376.147278	-449.487457
7017.520817	282.223846	-379.303345	-465.443024
7017.524143	286.373444	-381.933380	-482.567505
7017.527475	289.880188	-384.212738	-500.568665
7017.530813	293.328461	-387.076569	-519.037415
7017.534149	296.542969	-389.005280	-540.253052
7017.537481	299.874329	-391.576843	-560.358276
7017.540811	302.913513	-393.037994	-581.866150
7017.544145	305.368195	-395.551147	-604.133789
7017.547471	308.232025	-396.544708	-626.518433
7017.550815	310.394501	-396.603180	-649.662720
7017.554139	313.024536	-396.544708	-674.092957
7017.557502	315.187012	-396.486267	-697.178833
7017.560810	317.758606	-395.434265	-721.959656
7017.564137	319.278198	-393.914673	-745.688477
7017.567480	320.739319	-391.927551	-769.767944
7017.570805	322.025146	-388.537720	-792.912292
7017.574143	322.668030	-385.030975	-815.764465
7017.577493	324.596710	-380.998260	-840.019226
7017.580813	325.940979	-376.088867	-862.520752
7017.584141	326.992950	-370.594971	-885.314453
7017.587475	327.928101	-364.925781	-907.698975
7017.590808	329.038574	-358.321472	-928.447144
7017.594141	329.856812	-352.184692	-948.844482
7017.597477	330.207458	-344.586792	-968.949646
7017.600842	330.382812	-337.339600	-988.353577
7017.604140	330.032135	-328.631226	-1007.231384
7017.607475	330.207458	-319.922882	-1025.174194
7017.610808	330.032135	-310.571625	-1042.181763
7017.614135	330.265900	-301.103455	-1057.962036
7017.617470	329.097015	-291.343079	-1074.911255
7017.620807	327.986542	-280.530701	-1089.873291
7017.624139	326.350067	-269.659851	-1104.016968
7017.627470	323.895386	-258.087677	-1119.505005
7017.630797	320.973114	-246.866165	-1132.655151
7017.634134	317.641724	-234.066635	-1146.097534
7017.637471	313.725891	-220.974854	-1159.540161
7017.640801	309.284058	-207.357101	-1171.696655
7017.644187	303.264160	-192.336639	-1182.801392
7017.647466	297.185852	-177.608414	-1193.906006
7017.650804	290.113953	-162.237274	-1204.893677
7017.654133	282.808289	-146.164810	-1214.712402
7017.657467	274.216827	-128.689651	-1224.355957
7017.660800	264.924011	-111.448280	-1232.129272
7017.664137	254.462311	-92.745766	-1239.960937
7017.667462	243.942139	-72.874344	-1245.279419
7017.670798	232.136185	-53.821159	-1249.779785
7017.674130	219.511978	-32.722385	-1253.344849
7017.677464	207.004684	-10.571596	-1254.981323
7017.680800	193.912918	10.410286	-1254.922852
7017.684133	179.710693	32.853302	-1253.052612
7017.687488	165.683807	54.828751	-1249.312134
7017.690798	151.130920	77.154877	-1244.052002
7017.694131	136.344238	99.247215	-1237.038696
7017.697456	122.200470	122.508461	-1228.680908
7017.700790	108.407372	143.841034	-1218.745239
7017.704127	94.497375	165.582703	-1207.582153
7017.707464	81.405609	187.090591	-1195.717773
7017.710794	68.781418	207.546463	-1182.041626
7017.714160	56.858562	226.716537	-1168.774414
7017.717463	44.701931	245.185287	-1154.922852
7017.720792	34.181767	264.179993	-1139.434814
7017.724123	23.603157	282.064270	-1124.180664
7017.727456	13.784337	299.188751	-1108.225098
7017.730822	3.907072	315.962585	-1092.970825
7017.734129	-4.859731	331.041473	-1076.839844
7017.737457	-12.516072	346.061951	-1060.825806
7017.740798	-20.523087	359.971924	-1043.292236
7017.744125	-27.828754	372.829926	-1027.395020
7017.747451	-35.075977	385.395691	-1010.445923
7017.750790	-41.388077	396.850983	-995.308533
7017.754125	-48.226185	408.130890	-977.716492
7017.757457	-54.772060	418.767975	-960.942688
7017.760791	-60.558155	428.352966	-942.707764
7017.764124	-66.870247	436.769104	-925.466431
7017.767451	-73.123901	445.535950	-907.991211
7017.770784	-79.026878	453.016968	-889.931580
7017.774140	-85.397423	461.023956	-871.521362
7017.777455	-91.125069	468.738739	-852.994141
7017.780790	-98.138512	474.992371	-833.999390
7017.784126	-103.632378	480.310913	-815.589111
7017.787451	-110.879601	485.337219	-796.828125
7017.790784	-116.431915	490.071289	-778.534729
7017.794121	-123.620682	494.863831	-758.955566
7017.797455	-129.056107	497.727661	-740.136169
7017.800784	-135.251312	501.292786	-720.381592
7017.804120	-140.978958	504.156616	-700.568665
7017.807454	-147.232620	505.500854	-681.340149
7017.810785	-152.609589	506.611328	-661.585571
7017.814118	-157.460541	508.072449	-641.480408
7017.817468	-161.668610	507.020447	-622.076538
7017.820781	-166.402679	506.494446	-602.497375
7017.824116	-170.260086	505.676208	-583.093445
7017.827456	-173.533020	504.156616	-564.683228
7017.830783	-176.864410	501.526611	-546.915833
7017.834117	-179.026886	498.838074	-528.213318
7017.837448	-181.715363	495.506714	-511.381042
7017.840830	-183.293381	492.876678	-494.607269
7017.844112	-184.228516	489.369965	-478.476318
7017.847481	-185.397415	486.213867	-463.806519
7017.850783	-186.390991	482.064301	-450.188782
7017.854110	-186.917007	478.791351	-436.278778
7017.857447	-186.683228	474.758636	-423.596130
7017.860784	-186.858551	470.784332	-410.445953
7017.864111	-186.390991	467.862030	-398.990662
7017.867449	-185.806549	463.420197	-387.827576
7017.870782	-185.338989	458.218567	-376.606079
7017.874110	-184.637634	454.244293	-367.079498
7017.877448	-183.118057	451.029785	-356.384003
7017.880775	-182.241379	447.581543	-347.500305
7017.884107	-181.890701	443.198120	-339.376404
7017.887443	-180.254227	439.516083	-330.492706
7017.890790	-178.851547	435.541779	-321.433655
7017.894114	-178.150192	431.509064	-313.835785
7017.897438	-176.689056	427.476318	-306.646973
7017.900773	-175.111038	422.742218	-299.165985
7017.904110	-174.760376	418.183533	-291.451202
7017.907439	-173.416122	414.559906	-284.788422
7017.910778	-172.422562	409.650482	-276.489166
7017.914176	-171.662766	405.091766	-269.417297
7017.917436	-170.493866	400.416138	-262.403870
7017.920790	-169.383408	395.331390	-255.273529
7017.924106	-168.682053	391.064850	-247.675629
7017.927439	-167.279358	386.155457	-239.843964
7017.930771	-166.519577	380.953827	-231.544724
7017.934107	-165.759781	375.927521	-224.765060
7017.937435	-165.409103	370.492096	-216.933380
7017.940769	-164.590881	365.991821	-209.160141
7017.944102	-163.947983	360.497925	-203.198715
7017.947435	-162.369949	355.120972	-195.659271
7017.950775	-161.960831	349.334900	-188.119812
7017.954099	-160.558151	344.542358	-182.041489
7017.957430	-159.739914	339.165375	-174.735825
7017.960771	-158.570999	333.028625	-168.774414
7017.964110	-157.694321	327.768555	-162.988312
7017.967438	-156.466965	323.502045	-157.786667
7017.972121	-154.012268	314.092346	-147.032730
7017.975475	-152.434250	309.592041	-142.298660
7017.978798	-151.499130	304.682648	-137.155472
7017.982136	-149.979538	301.117462	-133.005844
7017.985496	-149.044418	297.610748	-130.142029
7017.988408	-147.933960	293.344238	-126.576859
7017.991695	-146.765045	290.246643	-122.076569
7017.995043	-145.362366	287.499695	-119.563416
7017.998703	-144.076553	284.635895	-116.874924
7018.002066	-143.433670	281.596710	-114.595566
7018.004965	-141.504959	278.674438	-111.965515
7018.008334	-140.862076	276.687317	-109.919937
7018.011697	-140.277603	274.232605	-107.815895
7018.015019	-138.991821	272.187012	-105.594971
7018.018371	-137.472229	270.375214	-104.367622
7018.021623	-136.946228	268.855621	-102.789597
7018.024941	-135.543533	266.868469	-101.270020
7018.028278	-134.549973	264.764465	-99.458214
7018.031634	-133.965515	262.601990	-97.412628
7018.034972	-133.556396	260.673279	-97.295731
7018.038386	-132.387497	259.036804	-95.191696
7018.041729	-132.095261	257.341888	-94.081238
7018.045017	-130.984802	254.711868	-92.678551
7018.048277	-130.283463	252.432510	-91.568085
7018.051628	-129.874329	249.977798	-88.996490
7018.054945	-129.172989	248.633560	-87.652252
7018.058299	-128.822327	246.237289	-85.489777
7018.061637	-128.237869	243.373459	-84.087082
7018.065037	-126.659851	241.620102	-82.041496
7018.068382	-126.542953	239.399185	-80.463470
7018.071643	-126.016953	236.418488	-77.891876
7018.074958	-125.958496	234.314438	-75.963181
7018.078272	-125.374054	231.801285	-73.683807
7018.081625	-124.555817	229.931046	-71.813560
7018.084991	-123.562241	227.359436	-70.060196
7018.088356	-123.796021	225.255417	-67.371712
7018.091708	-122.510223	222.742264	-65.852135
7018.095046	-122.159546	220.988892	-64.215668
7018.098281	-121.808884	219.001770	-62.579193
7018.101605	-121.224426	216.722397	-60.942726
7018.104937	-121.107544	215.495041	-59.072472
7018.107865	-120.464630	213.683228	-57.728230
7018.111639	-120.523087	212.046768	-56.383987
7018.114537	-119.938629	210.585632	-54.221508
7018.117901	-119.529510	209.182922	-53.929283
7018.121200	-119.821732	207.780243	-52.701931
7018.124577	-119.120392	206.962006	-52.292812
7018.127851	-119.587952	206.552902	-52.175922
7018.131182	-119.120392	206.377548	-51.123905
7018.134508	-118.594376	205.033325	-51.007015
7018.137864	-118.769730	205.383987	-50.773232
7018.141179	-119.003510	204.624191	-50.539452
7018.144510	-118.594376	204.799530	-51.065460
7018.147845	-118.594376	205.033325	-51.883694
7018.151206	-119.003510	204.857986	-51.766804
7018.154553	-118.711273	205.208664	-52.234367
7018.157863	-119.412628	204.974869	-52.526592
7018.161250	-119.354172	205.150223	-53.111046
7018.164504	-119.120392	205.442429	-52.994156
7018.167866	-119.646408	205.559326	-53.403275
7018.171175	-120.113968	206.202225	-54.046173
7018.174502	-120.347748	205.617783	-54.396847
7018.177840	-120.113968	206.026886	-54.163063
7018.181176	-119.880188	206.319107	-54.805962
7018.184506	-120.230850	204.916428	-54.630627
7018.187862	-120.815308	205.617783	-55.215080
7018.191238	-121.165970	206.143784	-55.390415
7018.194531	-121.049088	206.143784	-55.741089
7018.197895	-120.932190	205.734650	-55.098190
7018.201171	-121.691986	205.559326	-55.565750
7018.204505	-122.159546	204.974869	-54.455292
7018.207836	-122.101105	204.156631	-54.747517
7018.211165	-122.042664	204.039734	-54.046173
7018.214498	-122.977798	203.513733	-53.286385
7018.217439	-123.270004	202.403275	-52.818821
7018.220740	-123.796021	201.994156	-52.468147
7018.224086	-123.620682	202.520172	-51.825249
7018.227411	-123.854462	201.935715	-51.065460
7018.230742	-124.614258	201.526596	-51.708359
7018.234080	-124.906494	201.526596	-51.533024
7018.237406	-126.133835	201.117493	-50.831680
7018.240738	-126.192276	200.591461	-50.948570
7018.244076	-126.952072	201.175919	-50.539452
7018.247470	-127.770309	201.818817	-51.357685
7018.250745	-128.120987	201.701920	-52.059032
7018.254068	-128.997650	202.520172	-53.520164
7018.257405	-130.341904	202.812408	-52.701931
7018.260773	-130.517242	203.864410	-53.403275
7018.264073	-132.445923	204.215088	-54.630627
7018.267412	-133.264175	206.552902	-57.026886
7018.270743	-134.491531	207.604904	-58.371128
7018.274073	-135.309753	208.949158	-59.832264
7018.277400	-136.361771	210.527176	-61.760960
7018.280736	-137.822906	212.222092	-63.046757
7018.284069	-139.284042	213.858582	-65.092346
7018.287400	-140.336060	215.085907	-66.495033
7018.290736	-142.030975	217.657516	-68.073059
7018.294067	-143.492111	219.293991	-71.112213
7018.297405	-144.076553	221.631805	-72.807129
7018.300736	-146.414368	222.859146	-75.086502
7018.304091	-147.407944	224.670959	-77.132088
7018.307395	-148.693741	226.365875	-79.060783
7018.310732	-149.979538	228.294556	-80.697250
7018.314067	-151.674454	230.223267	-83.268845
7018.317396	-152.551132	231.625961	-85.022209
7018.320801	-154.596725	233.729980	-87.184692
7018.324061	-155.999405	234.840439	-88.704269
7018.327404	-157.226761	236.710693	-90.749855
7018.330730	-159.272354	238.405594	-93.438339
7018.334073	-160.265915	239.866745	-94.899475
7018.337400	-161.902390	241.561661	-96.535950
7018.340725	-164.064865	242.613663	-97.938629
7018.344067	-165.233780	243.841019	-99.224426
7018.347442	-167.045578	245.360611	-100.334892
7018.350736	-169.324951	246.354202	-101.679138
7018.354069	-170.435410	247.698410	-102.731155
7018.357394	-172.831680	248.692001	-105.010521
7018.360730	-174.994156	250.270035	-106.705437
7018.364055	-176.864410	251.146683	-108.283463
7018.367390	-178.968445	252.607834	-110.562828
7018.370726	-181.481583	254.068954	-112.140854
7018.374064	-183.819397	255.354752	-114.011108
7018.377393	-185.572769	257.458801	-116.582703
7018.380723	-187.735229	259.329041	-119.621857
7018.384055	-190.073044	261.316193	-123.187027
7018.387458	-192.995316	262.952637	-127.395096
7018.390732	-195.859131	265.699585	-129.557571
7018.394057	-198.664536	268.329620	-133.882523
7018.397395	-201.411453	270.316772	-137.272354
7018.400722	-204.275284	273.063690	-142.590881
7018.404058	-207.431320	276.161285	-146.682053
7018.407393	-210.295135	279.141998	-151.942139
7018.410732	-214.210968	282.239624	-157.085327
7018.414058	-217.483932	286.038574	-163.046753
7018.417386	-220.230850	289.136169	-169.534180
7018.420755	-223.912918	292.642883	-175.670944
7018.424054	-227.185852	296.091156	-182.625961
7018.427390	-230.283463	299.480988	-189.639404
7018.430723	-233.731735	303.046173	-196.302170
7018.434055	-237.180008	306.260651	-203.198715
7018.437390	-241.154297	309.416718	-211.088837
7018.440726	-244.368790	312.864990	-217.868500
7018.444052	-247.641708	316.313263	-225.817062
7018.447388	-251.206894	319.586182	-233.473419
7018.450739	-255.122757	322.391571	-241.714218
7018.454064	-258.512573	325.956726	-248.844543
7018.457388	-261.902405	328.411438	-256.793121
7018.460722	-265.526001	330.983063	-263.222076
7018.464068	-269.850983	333.846863	-271.404449
7018.467386	-274.175934	336.126251	-278.593231
7018.470716	-277.682678	338.814728	-285.665100
7018.474050	-281.364716	341.210968	-292.912323
7018.477386	-285.748108	343.373444	-300.159576
7018.480717	-290.073059	344.717712	-307.991241
7018.484051	-294.047363	346.412628	-316.582703
7018.487383	-297.261871	347.990631	-323.303925
7018.490716	-301.820587	350.153107	-331.661591
7018.494070	-306.613098	350.854462	-340.077728
7018.497384	-310.353607	352.198700	-349.955017
7018.500716	-315.905914	353.016937	-359.130920
7018.504046	-319.938629	354.068939	-367.488617
7018.507382	-324.614258	354.828735	-377.716522
7018.510708	-329.465240	355.354736	-386.775574
7018.514047	-333.673309	355.646973	-398.347748
7018.517381	-338.115143	355.763855	-409.627686
7018.520710	-343.316803	355.880768	-421.842773
7018.524074	-347.933960	355.413208	-434.642303
7018.527381	-352.668060	355.588531	-447.617187
7018.530740	-357.168335	355.588531	-462.228546
7018.534049	-361.843964	354.127380	-477.073669
7018.537395	-366.461121	353.659821	-491.743408
7018.540717	-371.195221	352.549377	-507.465210
7018.544045	-375.286377	350.971344	-524.414368
7018.547379	-379.786682	349.451752	-542.883118
7018.550713	-384.228546	347.523071	-561.527161
7018.554038	-387.735260	344.542358	-579.528320
7018.557373	-391.417297	340.977203	-598.698364
7018.560710	-394.982452	337.119812	-617.634705
7018.564042	-398.021637	333.554626	-636.863220
7018.567375	-400.125671	328.411438	-657.494446
7018.570714	-403.106384	323.443573	-676.781372
7018.574042	-404.918182	317.014618	-696.126831
7018.577375	-406.905334	310.819397	-716.173584
7018.580719	-407.548218	304.331940	-735.402100
7018.584038	-409.710724	297.143188	-755.799500
7018.587412	-409.944519	288.668610	-775.028076
7018.590705	-410.528931	281.070709	-793.555237
7018.594044	-411.347168	271.544098	-811.147278
7018.597369	-411.873169	262.368195	-829.382202
7018.600701	-412.165436	253.309189	-848.844482
7018.604044	-412.282288	242.438339	-866.085876
7018.607369	-412.399170	232.327286	-884.262451
7018.610701	-412.340759	221.281113	-901.679077
7018.614037	-411.347168	210.059616	-917.634644
7018.617408	-410.821167	197.727646	-933.882507
7018.620702	-410.645844	185.337234	-949.721191
7018.624047	-409.886047	172.479263	-964.449463
7018.627370	-409.593811	158.919937	-980.755676
7018.630704	-407.723541	144.250153	-995.542297
7018.634034	-406.087097	129.697266	-1010.445923
7018.637366	-404.275299	114.209236	-1024.706665
7018.640700	-401.879059	98.253647	-1039.785522
7018.644034	-398.196960	82.122734	-1052.643433
7018.647365	-395.157776	65.348915	-1067.430176
7018.650702	-391.534210	47.932205	-1080.580322
7018.654029	-387.326141	29.755697	-1095.016357
7018.657393	-382.416718	11.053185	-1108.984863
7018.660729	-377.215088	-7.181766	-1122.193481
7018.664035	-371.019897	-27.812975	-1135.811279
7018.667375	-364.473999	-47.742840	-1147.208130
7018.670701	-357.226776	-68.140274	-1160.182983
7018.674030	-348.869080	-88.420807	-1171.813599
7018.677366	-339.050262	-108.993576	-1181.690796
7018.680702	-329.465240	-129.274109	-1191.392822
7018.684028	-319.061981	-150.197540	-1200.802490
7018.687362	-308.483368	-171.179413	-1208.166626
