time (s)	magX	magY	magZ
7961.099980	-83.863823	151.619522	30.306839
7961.103275	-84.740501	153.957336	32.001755
7961.106616	-86.610756	156.587372	32.936874
7961.109953	-87.312103	157.931610	35.216248
7961.113279	-88.539459	160.386322	35.917595
7961.116605	-89.299240	162.373459	37.963181
7961.119971	-90.117477	164.711273	39.190529
7961.123303	-91.344833	166.756866	40.943893
7961.126630	-91.987732	169.796036	43.164818
7961.129949	-92.981300	171.724731	44.392166
7961.133267	-94.442429	174.354767	46.671539
7961.136612	-94.968437	177.335480	48.658676
7961.139946	-96.780251	180.082413	50.879601
7961.143300	-97.306252	182.537125	52.632957
7961.146601	-98.007599	185.284042	55.029221
7961.149949	-99.001167	188.907654	56.782585
7961.153329	-100.403854	190.777908	60.113976
7961.156654	-101.514313	193.875504	62.042664
7961.159993	-102.683220	197.791336	65.432495
7961.163302	-102.566338	201.005844	68.004089
7961.166608	-104.085915	204.161880	71.043251
7961.169936	-105.196381	207.610184	74.316185
7961.173303	-106.715950	210.883118	77.472237
7961.176601	-108.410873	213.980698	80.862068
7961.179937	-109.404442	217.779663	83.550560
7961.182844	-111.157799	220.818817	87.641731
7961.186182	-112.560486	224.267105	90.213326
7961.189513	-114.138519	228.650497	94.713631
7961.192850	-116.008766	230.520752	99.097023
7961.196182	-117.353004	234.728821	102.369957
7961.199513	-119.690819	237.826416	107.220924
7961.202857	-121.970192	241.800690	110.902977
7961.206186	-124.308022	245.891876	116.046181
7961.209513	-125.710701	249.398590	120.897133
7961.212843	-128.223846	253.255981	125.981880
7961.216187	-130.035645	257.405609	131.534180
7961.219507	-132.373459	261.146118	136.911163
7961.222840	-134.419052	265.587952	142.521912
7961.226178	-136.581528	268.568665	147.489777
7961.229507	-138.802444	273.361176	153.743408
7961.232843	-141.140259	276.867920	159.763306
7961.236177	-143.419632	281.543549	165.783173
7961.239506	-145.348328	286.920502	173.497955
7961.242845	-147.043243	291.128601	180.803619
7961.246186	-149.381058	295.511993	187.057281
7961.249505	-151.192856	299.836945	194.830505
7961.252838	-152.887772	304.629456	202.954407
7961.256171	-154.816483	309.480438	210.961426
7961.259507	-156.336044	314.389832	219.786652
7961.262841	-158.089417	319.416107	229.430145
7961.266169	-159.258316	324.267090	239.015198
7961.269501	-160.894791	329.118073	249.126251
7961.272836	-161.713028	334.728821	259.412628
7961.276171	-162.706589	339.872009	269.991241
7961.279512	-163.992401	344.430725	281.095825
7961.282878	-164.343063	349.983063	292.200470
7961.286168	-165.278183	355.009338	304.006439
7961.289526	-166.154877	360.152527	316.104614
7961.292841	-166.154877	365.003510	328.904144
7961.296171	-166.563995	369.562256	341.586792
7961.299502	-166.447098	373.711884	354.795441
7961.302839	-166.739319	378.445953	368.646973
7961.306169	-167.557571	382.069550	383.316772
7961.309506	-167.031555	385.693176	397.635864
7961.312838	-167.148437	389.141418	412.422546
7961.316162	-166.330215	392.706604	428.378143
7961.319500	-165.921097	395.161285	444.450592
7961.322831	-165.336639	397.440674	460.113983
7961.326163	-164.985977	399.369385	476.244904
7961.329500	-164.459961	401.064301	493.194000
7961.332840	-163.349503	401.648773	510.669220
7961.336161	-163.057266	402.116302	528.202820
7961.339494	-162.297485	402.174774	546.846924
7961.342844	-161.128571	401.648773	565.315613
7961.346166	-159.667435	400.596710	584.135010
7961.349497	-158.498535	399.135590	601.843994
7961.352828	-156.978958	396.096436	620.838684
7961.356161	-155.167145	393.524841	640.885437
7961.359499	-153.296890	389.433685	660.114014
7961.362826	-150.374634	385.108704	679.751648
7961.366163	-147.101700	379.907074	699.155457
7961.369522	-144.179428	373.887207	719.085388
7961.372831	-140.848038	367.224426	738.898315
7961.376161	-136.406189	359.860291	759.295776
7961.379494	-131.964340	351.619537	779.634705
7961.382827	-126.002922	342.443604	799.739990
7961.386158	-120.275276	333.209229	819.845154
7961.389493	-113.670959	323.156616	839.482727
7961.392823	-106.599068	311.818237	858.652832
7961.396161	-98.358276	300.012268	878.348999
7961.399488	-90.234367	288.498535	895.882568
7961.402828	-81.000000	275.640564	915.111023
7961.406160	-71.590302	261.496796	931.358887
7961.409555	-61.245468	247.469910	948.541809
7961.412850	-50.316193	233.092331	965.490967
7961.416159	-39.153130	218.071899	979.576233
7961.419493	-26.996492	202.408539	994.304504
7961.422821	-14.839859	186.336060	1007.513245
7961.426156	-3.092342	169.796036	1019.260681
7961.429484	9.356517	151.794861	1030.189941
7961.432820	23.091175	134.787262	1040.768555
7961.436154	35.949150	116.727646	1048.541748
7961.439490	49.450027	98.609581	1055.730469
7961.442818	62.308006	80.374641	1062.276489
7961.446159	75.633545	61.496788	1067.711792
7961.449485	87.848625	42.443600	1070.692505
7961.452815	100.239037	24.208652	1072.738159
7961.456168	112.687897	5.447692	1074.374634
7961.459490	123.850967	-14.599065	1074.374634
7961.462822	135.130920	-32.892460	1072.854980
7961.466155	145.475754	-51.244301	1069.640503
7961.469489	155.703690	-69.829926	1066.718262
7961.472821	165.697845	-88.006424	1060.230835
7961.476192	174.464645	-105.773811	1054.210937
7961.479488	182.471664	-123.541206	1046.496216
7961.482820	191.647583	-141.308594	1037.144897
7961.486150	198.661026	-157.205719	1027.618286
7961.489478	205.966690	-173.453537	1015.286438
7961.492820	212.629456	-189.000000	1002.253113
7961.496147	218.473999	-204.312683	988.986023
7961.499497	224.318527	-218.105789	974.491516
7961.502816	228.818817	-231.957336	958.185242
7961.506149	233.728241	-244.172409	942.989502
7961.509482	238.111633	-255.686142	923.877869
7961.512819	242.144363	-267.433685	906.928711
7961.516140	246.352432	-277.603149	887.700256
7961.519478	249.333145	-286.895966	867.010559
7961.522814	252.664536	-295.545898	846.671570
7961.526148	255.002350	-302.910004	825.631165
7961.529497	257.398590	-310.098755	805.350769
7961.532810	259.619507	-316.703094	783.609070
7961.536142	262.541779	-322.021637	761.867371
7961.539478	264.412018	-327.223236	740.008789
7961.542868	265.580963	-330.554657	718.267090
7961.546146	267.509644	-333.652252	697.109924
7961.549480	268.912323	-336.749847	674.959106
7961.552815	269.613678	-338.503204	654.210999
7961.556145	270.782562	-340.022797	633.579773
7961.559469	270.256561	-341.133270	611.955017
7961.562810	270.899475	-341.834595	590.505554
7961.566145	270.490326	-342.009949	570.166565
7961.569480	270.022766	-341.016357	550.762756
7961.572835	269.087646	-340.431915	529.897766
7961.576148	267.977203	-339.321442	510.669220
7961.579474	265.756287	-338.035645	492.960236
7961.582803	264.528931	-336.282288	473.381073
7961.586138	262.541779	-334.470490	455.789032
7961.589471	259.151947	-332.483337	439.482758
7961.592805	256.989471	-330.145508	421.832245
7961.596139	254.593231	-327.515472	406.110443
7961.599471	251.787842	-325.762115	390.680847
7961.602830	248.631805	-323.015198	374.842194
7961.606164	245.709534	-320.385132	359.412598
7961.609468	242.495026	-316.995331	345.677948
7961.612803	238.345428	-314.365295	332.878418
7961.616156	235.306259	-311.735229	319.611328
7961.619469	231.039764	-308.754547	307.279358
7961.622801	227.065460	-305.247803	295.356506
7961.626142	223.558762	-302.500854	282.907654
7961.629465	218.532440	-299.111053	272.329041
7961.632805	215.201065	-295.779663	261.516632
7961.636137	211.635895	-292.565186	250.879608
7961.639464	207.194046	-289.993561	240.184082
7961.642802	203.278198	-286.837524	230.365265
7961.646160	199.420822	-282.512573	220.429565
7961.649462	195.855652	-278.538269	210.961426
7961.652794	192.348923	-275.616028	202.428375
7961.656134	188.316193	-271.875519	194.421387
7961.659463	185.043259	-267.316772	186.297485
7961.662797	181.244308	-264.511383	178.173584
7961.666135	178.614273	-260.537140	170.283478
7961.669469	175.166000	-256.796631	163.328461
7961.672836	171.834610	-252.997650	156.373474
7961.676133	169.204559	-248.789597	149.301575
7961.679464	166.048508	-245.575089	143.690826
7961.682828	163.184692	-241.834595	137.203400
7961.686132	160.729980	-238.152542	132.001740
7961.689484	158.333725	-234.879608	126.624779
7961.692797	155.469894	-230.437744	120.371132
7961.696132	153.365875	-226.755692	115.169502
7961.699458	151.144958	-222.956757	110.435417
7961.702795	148.924026	-220.034470	106.285789
7961.706135	146.761551	-215.651077	101.493279
7961.710815	141.910583	-209.397430	93.544716
7961.714182	140.098785	-206.182922	89.453529
7961.717486	138.462311	-203.143768	85.303917
7961.720819	136.592056	-200.104614	81.972542
7961.724160	134.312683	-197.007004	78.173592
7961.727067	132.617783	-193.967850	75.485100
7961.730812	129.987732	-191.337814	73.497955
7961.733747	128.351257	-188.883118	70.341904
7961.737061	126.656342	-186.194626	67.302750
7961.740438	124.610756	-183.915253	63.912910
7961.744055	122.506721	-181.343658	60.523087
7961.746995	120.461128	-179.239624	58.594391
7961.750356	118.473991	-177.194046	56.081245
7961.753660	117.421974	-175.265350	53.918762
7961.757048	115.201057	-172.693756	52.106956
7961.760378	113.915253	-170.414368	50.295143
7961.763722	111.577438	-169.479248	48.249565
7961.766971	110.174751	-166.966095	45.736412
7961.770301	108.421394	-165.855637	45.268845
7961.773636	107.369377	-164.102280	42.405029
7961.777020	106.025131	-162.582703	40.943893
7961.780330	103.161308	-160.887787	39.073639
7961.783709	102.284630	-158.491531	37.320282
7961.787057	100.589706	-157.264175	36.385155
7961.790365	98.836349	-155.627701	34.982468
7961.793630	98.076561	-153.582123	32.819984
7961.796961	96.556984	-152.296310	32.118645
7961.800309	95.271187	-150.776733	30.832848
7961.803655	93.926941	-149.432495	28.962593
7961.807012	93.400932	-147.679138	28.202812
7961.810397	91.764458	-146.334900	26.683228
7961.813754	90.887787	-144.581528	25.806549
7961.816984	90.595558	-143.178833	24.170074
7961.820328	89.192863	-142.126831	23.877846
7961.823633	88.316193	-140.724152	22.358269
7961.827013	87.907066	-139.555222	20.955582
7961.830326	86.738159	-136.749847	20.371124
7961.833240	86.270599	-136.632965	19.962013
7961.836591	85.510811	-135.697845	17.974869
7961.839900	84.984802	-133.827591	17.974869
7961.843211	84.458794	-132.541794	17.098190
7961.846534	83.582115	-132.483353	16.572182
7961.849868	83.056107	-130.203979	15.344826
7961.853213	82.705429	-129.210403	14.701927
7961.856569	81.945648	-128.742844	14.643486
7961.859864	81.945648	-127.398598	14.526596
7961.863210	81.536522	-126.463470	13.123909
7961.866532	80.659851	-126.112801	13.123909
7961.869888	80.016945	-125.060783	11.662773
7961.873221	79.607834	-123.891876	12.247223
7961.876559	79.315605	-123.599648	11.838112
7961.879913	78.789597	-122.839867	11.545876
7961.883197	78.614258	-122.606079	11.253654
7961.886538	78.555817	-122.313850	10.143192
7961.889865	78.263588	-121.495613	9.967854
7961.893199	76.977791	-121.378731	9.734070
7961.896538	76.977791	-120.385155	10.026302
7961.899902	76.276443	-120.443604	10.084747
7961.903199	75.750435	-120.268257	9.909409
7961.906586	75.575104	-119.683807	9.208065
7961.909890	75.165985	-119.625359	9.091175
7961.913274	74.406197	-118.924019	8.331383
7961.916533	74.230858	-118.514900	8.915836
7961.919867	74.055527	-118.924019	8.331383
7961.923218	74.055527	-118.807137	7.805378
7961.926532	73.938637	-118.514900	8.272942
7961.929873	73.061951	-118.456451	7.980713
7961.932774	72.886620	-118.514900	7.980713
7961.936104	72.535942	-118.047340	7.863819
7961.939445	72.419052	-118.339569	7.688488
7961.942784	72.243713	-118.339569	7.045586
7961.946102	71.951492	-117.521332	6.811806
7961.949435	71.717712	-118.164223	6.461132
7961.952769	71.717712	-117.755112	7.630039
7961.956107	71.425484	-117.638229	7.630039
7961.959438	71.659264	-117.053764	7.454704
7961.962781	71.659264	-117.462883	6.870255
7961.966103	71.600822	-118.164223	7.045586
7961.969433	71.776154	-117.404442	7.104034
7961.972769	71.776154	-117.287552	6.285801
7961.976096	71.893044	-117.872009	6.519581
7961.979434	72.945061	-117.112213	6.636471
7961.982771	72.594391	-117.170662	7.337814
7961.986112	73.178841	-118.164223	6.928696
7961.989432	73.529510	-118.164223	6.870255
7961.992766	73.646400	-118.222672	7.337814
7961.996103	73.295731	-118.339569	7.863819
7961.999435	74.113968	-119.099350	8.039158
7962.002764	74.230858	-119.216248	8.331383
7962.006094	74.464638	-119.917595	9.500290
7962.009430	75.224434	-120.268257	9.324955
7962.012765	75.750435	-120.677383	9.909409
7962.016101	76.159554	-121.729393	10.961426
7962.019433	76.627121	-122.255402	10.084747
7962.022761	76.860901	-122.839867	11.253654
7962.026096	76.685570	-123.424309	11.136765
7962.029430	77.796021	-124.359436	12.364113
7962.032758	77.912910	-124.651665	13.123909
7962.036115	77.737579	-125.879021	13.240799
7962.039431	78.322037	-127.106361	13.299240
7962.042760	78.731148	-128.275269	14.117477
7962.046092	78.964928	-129.210403	14.935707
7962.049429	79.081818	-129.853302	15.520164
7962.052760	80.192284	-130.671539	16.046173
7962.056089	80.426064	-131.782013	17.215080
7962.059462	80.542961	-133.126251	17.273521
7962.062758	80.835182	-134.236710	17.741081
7962.066091	80.952072	-135.814728	17.974869
7962.069422	81.127411	-136.983627	18.851547
7962.072776	82.296318	-138.035660	20.312683
7962.076089	82.354759	-139.204559	20.137344
7962.079422	83.815895	-139.847458	21.481590
7962.082759	84.166565	-141.367035	21.890709
7962.086094	84.517242	-142.477493	22.533607
7962.089422	85.160133	-144.113968	23.234955
7962.092755	86.270599	-145.341324	23.994736
7962.096086	86.679718	-146.042664	25.046753
7962.099423	88.316193	-147.854462	26.507889
7962.102767	88.666862	-148.789597	26.975456
7962.106086	89.835770	-150.016953	28.261253
7962.109422	90.537109	-151.828751	29.605499
7962.112761	92.173584	-152.939224	31.183517
7962.116092	92.933365	-154.751022	32.352425
7962.119418	94.745178	-156.153717	33.521332
7962.122756	95.680305	-157.848633	35.040909
7962.126088	96.673874	-159.660431	36.151375
7962.129417	98.251900	-161.530685	38.196960
7962.132785	99.888367	-164.219177	40.359436
7962.136089	101.174164	-165.388077	41.469902
7962.139420	102.459961	-167.725891	43.223259
7962.142751	104.271767	-169.596146	44.976624
7962.146090	105.323784	-171.700180	48.249565
7962.149419	106.843361	-173.921097	50.178261
7962.152756	108.596725	-175.732910	51.873177
7962.156085	110.291641	-178.713623	54.035645
7962.159414	111.869659	-181.226761	56.431908
7962.162756	113.389244	-184.382812	59.295731
7962.166082	114.733490	-186.895966	62.393341
7962.169418	116.077736	-189.526001	65.257164
7962.172748	118.006432	-192.389832	68.588547
7962.176096	118.590881	-195.428986	71.978371
7962.179413	120.928696	-198.818817	74.549965
7962.182765	122.331383	-200.864410	77.180016
7962.186093	123.500290	-204.663361	81.095848
7962.189414	124.786087	-207.702515	84.602577
7962.192749	126.481010	-210.507889	88.284630
7962.196078	128.234360	-213.839264	92.083580
7962.199411	130.046173	-217.053772	95.765633
7962.202743	131.741089	-220.268265	99.681465
7962.206079	133.786682	-223.833435	103.655769
7962.209413	135.364700	-227.281708	107.630043
7962.212782	136.767395	-229.853287	112.305672
7962.216077	139.105209	-234.119812	116.572182
7962.219420	140.800125	-237.392761	121.364693
7962.222743	142.728821	-241.425491	126.566338
7962.226073	144.599075	-244.698425	131.709534
7962.229412	147.112228	-247.737564	138.839874
7962.232739	149.333145	-251.361206	143.340149
7962.236079	151.670959	-255.160141	150.178253
7962.239412	153.774994	-258.725311	156.490356
7962.242736	156.288147	-262.290466	162.568665
7962.246077	159.210419	-266.206329	169.757446
7962.249412	161.548233	-269.946808	176.361786
7962.252744	164.353607	-273.687317	183.784363
7962.256160	167.100525	-276.843384	191.557556
7962.259419	169.672134	-280.876099	200.441284
7962.262743	173.178848	-284.733490	208.214508
7962.266070	175.575104	-289.175354	217.507294
7962.269407	179.140274	-293.324951	227.910553
7962.272740	182.004105	-295.954987	236.735809
7962.276071	184.517242	-300.104614	247.781982
7962.279409	187.147293	-304.254242	258.828156
7962.282737	189.894211	-308.286987	270.166565
7962.286067	193.284058	-311.910583	281.621857
7962.289400	196.147873	-316.293976	294.246063
7962.292739	199.011688	-319.917572	306.578003
7962.296066	201.407959	-324.184113	319.962006
7962.299407	203.921112	-328.450592	333.696655
7962.302733	206.025146	-331.782013	347.898895
7962.306076	207.953827	-336.282288	362.568695
7962.309402	209.414963	-339.263000	376.887787
7962.312737	210.759201	-343.529510	391.966705
7962.316070	212.337234	-346.977783	408.272919
7962.319398	214.265945	-349.783173	424.929871
7962.322733	215.551727	-354.049683	442.171204
7962.326067	215.610168	-357.205719	459.646393
7962.329399	216.779083	-359.952667	476.595551
7962.332737	216.954422	-362.582703	494.538300
7962.336068	217.597305	-364.803619	512.305725
7962.339399	216.779083	-366.615448	531.242004
7962.342760	216.837524	-368.719452	551.230286
7962.346066	216.720642	-370.122131	570.049744
7962.349403	216.779083	-371.291077	589.278198
7962.352734	216.428421	-372.869080	608.799011
7962.356063	215.376389	-372.635284	628.319702
7962.359401	213.915268	-372.284637	648.834045
7962.362727	212.512573	-371.115723	668.413208
7962.366060	211.577454	-369.362366	688.459961
7962.369392	209.824081	-367.375214	710.026306
7962.372736	207.895401	-365.095856	730.949768
7962.376063	206.317368	-361.180023	750.996521
7962.379394	204.096451	-357.673279	771.510864
7962.382733	201.466400	-353.173004	792.726501
7962.386079	199.596146	-347.386902	813.474609
7962.389396	196.673874	-341.367035	834.164307
7962.392729	192.348923	-334.704285	854.620117
7962.396061	189.017548	-327.398621	874.725281
7962.399398	185.335480	-318.982452	894.304504
7962.402732	180.952072	-310.098755	913.766846
7962.406061	176.042679	-300.104614	932.352417
7962.409392	170.899475	-289.642914	949.652222
7962.412723	164.821167	-278.421387	967.244324
7962.416056	158.450623	-266.615448	982.089539
7962.419390	151.963181	-254.108109	998.103455
7962.422726	144.131516	-241.600815	1012.130310
7962.426056	135.890717	-227.164810	1025.397339
7962.429416	126.831673	-212.436584	1038.255371
7962.434070	107.720047	-182.220337	1058.243652
7962.437399	97.550552	-165.446518	1066.893555
7962.440760	86.679718	-149.198700	1073.147339
7962.444060	75.107536	-132.191116	1078.991821
7962.447415	63.710693	-114.891289	1084.485596
7962.450710	51.612503	-97.240799	1086.355835
7962.453644	39.981880	-80.525421	1087.349487
7962.457420	27.357685	-62.407360	1087.115601
7962.460319	14.967271	-44.172413	1085.362305
7962.463694	1.466394	-26.755699	1083.083008
7962.466927	-10.514904	-7.118060	1079.108765
7962.470233	-22.379309	10.590882	1073.030396
7962.473603	-34.360603	28.884281	1067.244263
7962.476929	-46.341904	46.768555	1060.055420
7962.480265	-57.446526	64.243721	1049.710693
7962.483649	-68.726471	82.127998	1040.476318
7962.486974	-79.188202	98.551147	1029.371582
7962.490260	-89.240799	115.792511	1017.916443
7962.493570	-99.001167	133.150803	1004.824646
7962.496921	-108.878433	149.106369	991.791443
7962.500252	-117.002342	165.763306	976.712463
7962.503592	-125.535362	181.952652	960.932190
7962.507020	-133.074799	197.090012	947.022217
7962.510300	-140.322021	212.052017	930.949768
7962.513637	-147.043243	226.488022	913.357666
7962.516928	-153.238449	239.755112	895.122742
7962.520222	-159.141434	253.548218	877.180054
7962.523557	-164.401505	265.880188	859.237366
7962.526929	-168.668030	278.329041	839.658142
7962.530250	-174.629456	290.135010	821.072510
7962.533674	-178.311508	301.181183	801.727051
7962.536974	-182.461121	311.935120	782.966125
