time (s)	magX	magY	magZ
6900.955805	-117.893036	204.799530	-58.663357
6900.959140	-118.594376	206.552902	-60.241379
6900.962465	-119.880188	209.299820	-62.345413
6900.965805	-121.341324	212.222092	-63.748100
6900.969164	-122.627106	214.793701	-65.559906
6900.972467	-123.971359	216.956161	-68.715958
6900.975804	-125.315598	219.293991	-70.177094
6900.979155	-127.185852	221.631805	-72.281128
6900.982466	-128.296310	224.378723	-75.320282
6900.985806	-130.049683	227.768555	-78.008766
6900.989134	-131.393921	230.690842	-80.697250
6900.992465	-133.205719	233.262421	-84.613091
6900.995802	-135.835770	236.301590	-85.957336
6900.999135	-137.355347	239.048538	-88.996490
6901.002462	-139.050247	242.087662	-92.444771
6901.005798	-141.212738	245.652847	-95.834595
6901.009131	-143.316772	248.808884	-99.458214
6901.012505	-144.661026	251.731155	-101.971359
6901.015793	-147.291046	254.068954	-105.653427
6901.019132	-149.395081	256.874329	-109.043251
6901.022465	-151.206894	260.088837	-112.433075
6901.025792	-153.544708	263.303314	-115.939804
6901.029128	-156.466965	266.342468	-119.446533
6901.032461	-158.804779	269.206299	-123.303925
6901.035799	-161.551727	271.953217	-126.693741
6901.039128	-163.889542	275.284637	-130.843369
6901.042459	-166.168900	278.089996	-134.466980
6901.045792	-169.792526	281.655151	-138.441269
6901.049176	-172.539444	285.044983	-143.233780
6901.052461	-174.935715	287.499695	-146.974289
6901.055835	-177.799530	291.357086	-151.708359
6901.059129	-180.546463	293.870239	-156.091766
6901.062460	-183.001175	297.318512	-161.176514
6901.065789	-185.864975	301.175903	-166.378143
6901.069129	-188.670364	303.922852	-171.229111
6901.072458	-191.592636	308.189362	-177.716553
6901.075792	-195.216232	312.572754	-183.677963
6901.079124	-197.612503	316.196381	-190.574524
6901.082458	-200.417892	320.462891	-196.652832
6901.085788	-203.457031	324.670929	-204.016953
6901.089121	-206.087082	329.171234	-212.140854
6901.092461	-209.710709	333.613098	-220.147873
6901.095790	-212.749847	337.996490	-228.330231
6901.099140	-216.548813	343.607239	-237.155472
6901.102450	-219.587952	348.341309	-246.565170
6901.105791	-221.984207	352.607819	-255.916428
6901.109117	-225.666275	357.341888	-266.027466
6901.112451	-228.471649	362.718872	-276.956726
6901.115835	-232.212143	367.160706	-288.236694
6901.119121	-235.601990	371.953217	-299.049072
6901.122459	-238.582687	376.745758	-311.147278
6901.125783	-242.089432	380.836914	-323.187042
6901.129156	-245.654587	384.986542	-336.103455
6901.132452	-249.219772	389.253052	-348.844543
6901.135779	-252.025131	393.285797	-362.170074
6901.139122	-256.233215	396.792511	-375.612518
6901.142472	-260.324371	400.883667	-389.990051
6901.145783	-264.181793	403.689056	-403.607849
6901.149117	-267.454712	406.143768	-419.154297
6901.152452	-270.610748	408.832275	-433.531860
6901.155780	-274.175934	411.579193	-448.844543
6901.159120	-277.974854	412.923431	-463.806519
6901.162448	-281.656921	414.735229	-479.177673
6901.165784	-285.338989	416.196350	-495.834595
6901.169115	-288.787262	416.956146	-511.147308
6901.172464	-292.878448	416.722351	-527.979553
6901.175779	-296.034515	417.073059	-545.571594
6901.179153	-299.248993	416.371674	-562.111572
6901.182451	-302.580383	416.254822	-579.060730
6901.185787	-304.976624	414.676758	-597.412598
6901.189115	-308.483368	413.975433	-615.472229
6901.192447	-310.587372	410.468719	-634.466919
6901.195779	-312.691437	409.066010	-652.760315
6901.199112	-315.204559	405.909973	-671.521301
6901.202472	-316.373474	401.292816	-692.386292
6901.205784	-318.068390	397.201630	-712.725281
6901.209111	-318.828186	391.941559	-733.999390
6901.212444	-319.003510	386.506134	-755.448853
6901.215777	-318.535950	380.836914	-777.307373
6901.219112	-318.535950	373.355927	-798.815247
6901.222444	-317.367065	365.407349	-821.725830
6901.225777	-315.204559	356.991211	-844.753357
6901.229111	-313.451233	347.990631	-868.891296
6901.232437	-310.295166	336.593811	-892.678528
6901.235780	-306.671539	326.015198	-917.809998
6901.239109	-303.281708	313.098755	-942.298645
6901.242436	-298.021637	299.656311	-967.021057
6901.245796	-293.346008	285.395691	-991.684998
6901.249105	-287.033905	269.147858	-1015.355347
6901.252441	-280.604919	253.542984	-1038.558228
6901.255771	-274.526611	236.184692	-1061.293457
6901.259109	-266.870270	217.540619	-1085.431274
6901.263733	-251.031540	178.674469	-1128.096558
6901.267124	-242.615417	157.517258	-1148.669312
6901.270458	-233.673294	135.775574	-1168.014648
6901.273426	-224.906479	113.858559	-1186.541870
6901.277134	-216.782578	90.305077	-1203.841675
6901.280481	-207.314423	68.095848	-1218.979004
6901.283366	-196.852722	45.009933	-1235.168335
6901.287124	-186.975449	21.690237	-1247.734131
6901.290008	-177.273514	-1.980130	-1259.247803
6901.293371	-167.630035	-26.468733	-1270.644653
6901.296693	-157.285217	-49.729988	-1279.469849
6901.300052	-146.648148	-72.932785	-1287.476929
6901.303297	-136.478653	-96.369377	-1293.321411
6901.306611	-125.900055	-118.753944	-1297.997070
6901.309981	-115.964355	-141.255402	-1301.503906
6901.313325	-105.502625	-162.880188	-1303.374146
6901.316637	-94.573341	-184.212738	-1304.309204
6901.320048	-84.111626	-205.662186	-1302.029785
6901.323385	-72.481003	-225.708939	-1300.393433
6901.326656	-62.428402	-245.288132	-1296.243774
6901.329942	-51.382233	-263.406189	-1289.990112
6901.333302	-39.751610	-281.641174	-1282.976685
6901.336641	-28.120979	-299.466980	-1274.677368
6901.339964	-16.431911	-316.591461	-1265.559937
6901.343355	-5.035068	-332.839294	-1254.221558
6901.346704	6.654004	-348.502625	-1240.662231
6901.350020	19.102863	-362.997101	-1225.583252
6901.353277	30.032146	-377.842194	-1209.452393
6901.356626	42.364113	-390.992432	-1193.789062
6901.359966	53.936295	-403.967285	-1175.086548
6901.363302	64.573349	-415.597900	-1154.806030
6901.366717	75.561073	-426.527222	-1133.824097
6901.370030	86.431915	-436.638245	-1110.679810
6901.373353	96.309181	-445.171265	-1087.476929
6901.376640	106.361778	-454.230316	-1063.338989
6901.379943	115.420807	-461.360626	-1037.798462
6901.383279	123.369377	-468.023376	-1012.491455
6901.386640	131.610168	-473.341949	-985.489685
6901.389990	139.383392	-477.666840	-958.604858
6901.393374	145.929276	-481.933411	-931.018677
6901.396680	151.890717	-484.855652	-902.438904
6901.399551	157.443008	-487.310364	-875.144897
6901.402868	161.884872	-489.472809	-847.208008
6901.406182	165.917587	-490.875519	-820.790710
6901.409520	169.365875	-491.226196	-794.665710
6901.412856	171.995911	-491.693787	-767.722351
6901.416185	174.158386	-491.050842	-742.766174
6901.419536	176.671539	-490.407928	-716.757996
6901.422851	178.424896	-488.479279	-691.977173
6901.426199	179.009354	-486.492096	-668.423706
6901.429538	180.295151	-484.738770	-644.227356
6901.432869	180.119812	-481.524261	-621.725830
6901.436255	180.938049	-478.134430	-600.977783
6901.439514	180.587372	-475.679718	-579.002319
6901.442852	179.476913	-471.822357	-558.254211
6901.446179	180.353592	-467.848053	-537.915283
6901.449515	179.476913	-463.639954	-518.160706
6901.452843	179.593811	-458.905945	-499.516663
6901.456187	178.074234	-454.931641	-481.632385
6901.459512	177.197556	-450.548218	-463.631195
6901.462873	177.080658	-445.229706	-446.097595
6901.466200	176.437759	-440.320282	-430.609589
6901.469531	175.794861	-435.527740	-413.660431
6901.472948	174.509064	-429.975464	-397.997101
6901.476190	173.924606	-424.189362	-382.333740
6901.479509	172.872589	-418.344818	-368.014618
6901.482838	172.054352	-412.675629	-352.526581
6901.486176	171.177673	-407.415558	-338.382812
6901.489513	170.417877	-400.811249	-325.407959
6901.492843	168.781418	-394.966705	-311.556396
6901.496179	167.612503	-389.472839	-298.639984
6901.499564	166.794281	-383.160736	-286.658691
6901.502862	165.333145	-376.556427	-273.917603
6901.506204	164.514908	-369.835205	-261.644073
6901.509139	163.170670	-364.049103	-250.188782
6901.512846	161.358856	-357.970795	-238.967270
6901.516174	159.722397	-351.424896	-227.278198
6901.519084	158.261261	-345.638824	-217.517822
6901.522411	156.449448	-339.677399	-207.640564
6901.525745	154.871414	-333.540619	-197.821747
6901.529083	152.592056	-327.403870	-187.827591
6901.532413	150.254242	-322.143799	-178.593216
6901.535742	148.734650	-315.656342	-170.001755
6901.539085	146.163055	-310.396271	-162.403870
6901.542410	143.533035	-305.428406	-155.156631
6901.545749	141.662781	-299.466980	-148.026306
6901.549097	139.967865	-294.499115	-140.779083
6901.552405	137.688477	-289.297516	-134.408539
6901.555742	136.227356	-284.855652	-129.031555
6901.559075	134.181763	-280.121582	-122.661011
6901.562411	131.668610	-275.621277	-117.634720
6901.565745	129.155472	-271.646973	-112.433075
6901.569079	126.642311	-267.438934	-108.984802
6901.572421	125.122742	-263.406189	-104.075394
6901.575741	123.252487	-259.899475	-99.049095
6901.579078	121.090012	-256.392761	-96.068382
6901.582412	119.336639	-252.476913	-92.503220
6901.585742	117.817070	-249.496201	-88.119812
6901.589072	116.472832	-245.755692	-84.788429
6901.592437	114.953247	-242.833420	-81.573936
6901.595742	113.024544	-239.151367	-78.534775
6901.599075	112.264763	-236.053757	-75.495621
6901.602407	111.154297	-232.313248	-72.514908
6901.605740	109.400940	-228.806549	-69.826416
6901.609066	108.524261	-225.825836	-67.722382
6901.612402	107.238464	-223.546463	-64.683228
6901.615740	106.654007	-220.390411	-62.228523
6901.619069	105.601990	-217.000580	-60.358269
6901.622401	104.374634	-214.136765	-57.786674
6901.625738	103.614853	-211.272934	-55.098190
6901.629086	101.919937	-208.175323	-52.351257
6901.632399	100.575691	-205.194626	-49.487434
6901.635740	99.815903	-202.447693	-47.617184
6901.639064	98.530106	-200.109879	-45.045586
6901.642425	98.120987	-196.720047	-42.766220
6901.645735	97.010529	-193.973114	-41.071304
6901.649071	96.016953	-190.817062	-39.317944
6901.652405	95.315605	-188.187012	-37.330803
6901.655737	94.438934	-185.732315	-35.343658
6901.659068	93.211578	-183.277603	-33.590302
6901.662396	92.159561	-181.173584	-30.901814
6901.665734	91.633545	-179.186432	-29.148453
6901.669070	90.347748	-176.556396	-28.213326
6901.672436	89.880188	-174.686142	-26.810638
6901.675737	88.652840	-172.406769	-24.765051
6901.679076	88.360611	-171.237869	-22.894798
6901.682400	86.899483	-168.549393	-21.258327
6901.685728	86.139687	-167.438919	-21.199883
6901.689060	84.912331	-165.744003	-19.738750
6901.692397	84.035652	-163.815308	-18.745178
6901.695731	83.275864	-161.535934	-17.868500
6901.699063	82.808304	-160.893036	-17.167156
6901.702399	82.165405	-159.899460	-16.348919
6901.705729	81.113388	-158.555222	-15.296906
6901.709063	80.470490	-157.444763	-14.011105
6901.712394	79.360031	-156.100525	-14.186440
6901.715775	79.476921	-155.165405	-13.601986
6901.719059	78.775574	-153.821152	-13.601986
6901.722406	78.015785	-153.061356	-13.075977
6901.725733	78.074234	-152.652237	-12.666862
6901.729059	77.548218	-151.541779	-11.556400
6901.732399	77.197548	-150.898895	-11.381065
6901.735731	76.905327	-149.554642	-10.913502
6901.739060	76.262421	-149.437759	-10.095268
6901.742394	75.970192	-148.444183	-10.504383
6901.745730	75.385735	-147.684387	-10.329048
6901.749056	75.151955	-146.866165	-9.803040
6901.752391	75.093513	-146.457047	-9.510815
6901.755726	75.151955	-145.112793	-9.218586
6901.759081	74.976624	-144.352997	-8.984806
6901.762387	74.742844	-143.710114	-8.108124
6901.765729	74.567505	-143.184097	-8.283463
6901.769057	74.450615	-142.658096	-7.699009
6901.772393	74.918175	-141.606079	-6.705437
6901.775720	74.567505	-140.670944	-7.348335
6901.779055	73.866158	-140.378723	-6.997665
6901.782386	74.509064	-139.443588	-6.763882
6901.785717	74.275276	-139.034485	-5.770313
6901.789066	73.983047	-138.683807	-6.237873
6901.792391	74.216835	-138.040909	-5.478085
6901.795722	73.924606	-136.755112	-4.718296
6901.799058	73.515488	-136.170654	-4.835186
6901.802417	73.866158	-136.229111	-3.958504
6901.805719	73.047928	-135.527756	-4.250732
6901.809055	73.047928	-134.767975	-4.075394
6901.812385	72.872589	-134.651077	-3.490940
6901.815718	72.814140	-134.125076	-2.088253
6901.819049	72.697250	-134.300400	-2.906487
6901.822388	72.580360	-134.417297	-3.023380
6901.825716	71.937469	-134.534180	-2.555817
6901.829053	72.638809	-134.651077	-1.912922
6901.832384	72.171249	-133.832840	-2.029812
6901.835714	72.229691	-134.826416	-2.731155
6901.839047	72.288139	-135.060196	-2.672707
6901.842384	72.697250	-135.177078	-3.315609
6901.845726	72.405029	-136.346008	-3.374050
6901.849045	72.755699	-136.053772	-3.900063
6901.852379	72.931030	-137.105774	-3.666279
6901.855713	72.872589	-137.573349	-3.958504
6901.859098	73.340157	-138.274689	-4.718296
6901.862384	74.041496	-138.742249	-5.010521
6901.865711	73.866158	-139.209808	-5.302750
6901.869048	74.684395	-140.437164	-6.062538
6901.872375	74.742844	-140.086502	-7.173000
6901.875737	74.918175	-141.664520	-7.406780
6901.879042	76.145531	-141.898300	-7.523670
6901.882378	76.437759	-142.541199	-7.874344
6901.885716	77.139107	-143.067215	-7.874344
6901.889050	77.606667	-143.827011	-9.452370
6901.892379	78.717125	-144.236115	-9.686150
6901.895715	79.243141	-144.995911	-9.277031
6901.899043	79.418472	-146.047913	-9.569260
6901.902376	80.295151	-146.515472	-10.679722
6901.905704	81.230278	-147.509048	-10.855057
6901.909046	81.697845	-148.093506	-12.023964
6901.912378	82.749855	-148.970184	-11.205727
6901.915708	83.100533	-149.905319	-11.673290
6901.919054	83.392754	-150.197540	-12.316189
6901.922372	84.035652	-150.957321	-12.900642
6901.925704	84.912331	-151.834015	-12.725307
6901.929046	84.853889	-152.360016	-13.309761
6901.932382	86.022797	-153.295135	-13.134426
6901.935708	86.315025	-154.697845	-14.303329
6901.939043	87.542374	-155.106949	-14.712452
6901.942375	88.185280	-156.626526	-15.530685
6901.945705	88.886620	-157.853882	-15.706020
6901.949070	89.237289	-159.315018	-16.699593
6901.952379	90.406197	-160.191696	-17.225601
6901.955700	90.756874	-162.003494	-18.160725
6901.959039	91.867332	-162.997070	-19.388077
6901.962387	92.218002	-164.399765	-20.556984
6901.965704	93.679138	-166.503784	-21.842781
6901.969040	94.438934	-168.023376	-22.485680
6901.972371	95.140274	-170.244293	-23.654591
6901.975716	95.607834	-171.939209	-24.940388
6901.979036	96.952080	-174.160141	-27.570427
6901.982369	98.179436	-175.971939	-27.862654
6901.985697	99.757454	-178.134415	-29.499125
6901.989037	100.634140	-180.764465	-32.012276
6901.992368	102.504387	-183.336060	-34.291641
6901.995706	103.439514	-185.732315	-34.817650
6901.999060	104.783760	-188.070129	-36.863239
6902.002370	106.361778	-190.875504	-39.493279
6902.005718	107.881355	-192.745758	-41.363533
6902.009029	109.050262	-195.434235	-43.876682
6902.012365	110.628288	-198.181183	-46.331387
6902.015693	112.966110	-200.635880	-48.786091
6902.019037	114.368797	-203.090591	-52.468147
6902.022364	116.005264	-206.188187	-53.286385
6902.025694	118.343079	-209.694916	-58.020458
6902.029032	120.505547	-212.208054	-61.118061
6902.032363	122.434250	-215.247223	-63.222092
6902.035693	124.538284	-217.000580	-66.845703
6902.039030	126.291649	-220.156631	-69.884865
6902.042361	128.921692	-222.845108	-72.631798
6902.045694	131.084167	-225.825836	-76.372299
6902.049032	133.538864	-228.864975	-77.541206
6902.052362	135.584442	-231.962585	-81.690826
6902.055690	137.922256	-234.592636	-84.846878
6902.059027	139.909409	-237.924011	-89.288727
6902.062359	141.955002	-241.080078	-92.094101
6902.065695	143.942139	-244.119217	-95.893044
6902.069026	146.630630	-246.866165	-99.925781
6902.072363	148.793106	-250.665100	-103.140274
6902.075690	150.604919	-254.347153	-107.991234
6902.079056	153.234955	-257.561676	-112.257751
6902.082363	155.572769	-261.009949	-117.400940
6902.085688	157.910568	-264.867340	-122.836349
6902.089019	160.715958	-268.666290	-127.453537
6902.092374	162.819992	-272.582123	-133.531860
6902.095694	164.339569	-276.614838	-139.025711
6902.099022	166.969604	-280.589142	-145.104034
6902.102356	169.891891	-284.271179	-152.701935
6902.105688	171.703690	-289.122162	-158.780243
6902.109021	174.333725	-294.265350	-166.144363
6902.113760	179.944489	-302.915253	-182.684402
6902.117085	182.457626	-307.883118	-191.158966
6902.120377	185.730560	-312.734070	-200.101105
6902.123690	188.477509	-318.812408	-209.978394
6902.126994	191.458221	-323.195801	-219.446518
6902.130380	195.140274	-328.105194	-229.090012
6902.133703	198.705444	-332.956177	-239.317947
6902.136665	201.510818	-338.508484	-250.831680
6902.139964	205.251312	-343.067200	-263.105194
6902.143625	209.517822	-348.677979	-275.144958
6902.147004	212.907669	-352.886047	-288.119812
6902.149914	217.349503	-357.444794	-300.510223
6902.153241	221.206894	-362.354187	-313.660431
6902.156565	224.596725	-367.029816	-327.745758
6902.159964	228.804794	-371.354767	-342.590881
6902.163281	232.720627	-376.147278	-356.793121
6902.166529	236.285797	-380.764465	-371.988892
6902.169867	241.136749	-384.212738	-387.593811
6902.173203	244.643494	-388.537720	-402.964935
6902.176551	248.442429	-392.044434	-419.855652
6902.179926	251.890717	-395.726471	-435.869659
6902.183299	255.514328	-398.882538	-453.052612
6902.186606	259.313263	-402.330811	-470.235535
6902.189892	263.462891	-405.428406	-488.061371
6902.193204	266.268250	-408.233765	-506.413208
6902.196519	270.184082	-411.156067	-524.355896
6902.199886	272.872559	-413.669189	-545.045593
6902.203222	275.502625	-416.123901	-564.098755
6902.206623	278.307983	-418.637085	-584.437744
6902.209961	280.879578	-420.741089	-605.010498
6902.213288	283.392731	-422.611328	-626.226135
6902.216528	285.146088	-424.247833	-647.441833
6902.219867	286.022766	-425.416687	-670.644653
6902.223212	287.016357	-426.527222	-693.496765
6902.226563	287.717712	-426.702545	-716.407349
6902.229879	288.243713	-427.462341	-740.486816
6902.233282	288.652832	-426.410278	-765.384521
6902.236601	288.769714	-425.884277	-789.463989
6902.239868	288.945068	-424.481567	-815.179993
6902.243198	287.893036	-422.377594	-840.720642
6902.246528	286.198120	-420.156677	-866.436523
6902.249882	285.087646	-416.533020	-892.853882
6902.253237	282.399170	-412.149628	-919.388062
6902.256131	280.938019	-407.357117	-945.571594
6902.259453	278.132660	-401.629456	-970.586182
6902.262788	276.028625	-394.791351	-996.535950
6902.266167	272.171234	-387.251923	-1021.609009
6902.269443	268.722961	-378.835754	-1045.630127
6902.272758	265.157806	-368.958527	-1070.060303
6902.276099	260.949738	-358.146118	-1092.970825
6902.279434	256.741669	-347.041504	-1115.589111
6902.282767	251.423157	-334.534210	-1136.629517
6902.286093	247.098190	-320.741089	-1157.026855
6902.289435	240.143188	-307.006439	-1175.671021
6902.292786	235.409134	-292.102875	-1193.438354
6902.296143	229.097031	-276.497955	-1208.984863
6902.299457	222.551147	-260.133240	-1224.648193
6902.302822	215.303909	-243.300995	-1237.330811
6902.306090	208.115143	-225.708939	-1249.019897
6902.309454	199.874344	-207.357101	-1259.423218
6902.312752	192.159561	-188.654587	-1267.956177
6902.316088	182.691406	-169.952072	-1275.437134
6902.319432	174.216827	-150.606659	-1282.158447
6902.322763	164.631805	-130.559906	-1287.593872
6902.326095	154.579208	-110.805382	-1290.282349
6902.329444	144.175919	-90.466400	-1292.269409
6902.332790	134.064880	-70.185852	-1292.561646
6902.336113	122.492699	-50.255989	-1292.327881
6902.339466	110.978966	-29.683228	-1291.100586
6902.342765	98.997665	-8.350673	-1287.243164
6902.346095	87.016373	12.280537	-1283.385742
6902.349421	74.567505	32.911743	-1278.593262
6902.352783	61.183517	53.016945	-1271.930542
6902.356086	48.968437	73.180595	-1263.105225
6902.359426	36.461132	93.461136	-1254.630737
