time (s)	magX	magY	magZ
6874.354879	354.067200	-422.196960	775.309814
6874.358206	353.190521	-422.138489	754.853882
6874.361542	352.021637	-423.073608	735.333191
6874.364872	350.034485	-422.839874	714.701965
6874.368210	347.988892	-423.307404	695.356506
6874.371536	346.118652	-423.365875	676.537109
6874.374872	344.073029	-422.664551	658.243774
6874.378221	341.326111	-421.261841	640.008789
6874.381576	339.280548	-419.742249	621.832275
6874.384874	337.644043	-418.105774	604.590881
6874.388207	335.014008	-416.469330	586.706665
6874.391530	332.676208	-415.767944	569.406799
6874.394885	329.637054	-412.904175	552.399231
6874.398201	327.708344	-410.800110	536.209839
6874.401540	324.786072	-408.111633	520.604919
6874.404875	322.798950	-405.189362	504.473969
6874.408199	320.402679	-401.857971	489.161346
6874.411540	317.714203	-398.701935	473.907074
6874.414868	315.259491	-395.779663	459.529510
6874.418200	313.038574	-392.448273	444.742859
6874.421530	309.298065	-388.649323	431.183502
6874.424884	307.720032	-384.499725	416.572174
6874.428202	304.797760	-380.700745	403.363525
6874.431534	302.459961	-377.135590	390.856201
6874.434863	299.362366	-373.336639	377.764435
6874.438200	296.732300	-369.420807	364.555817
6874.441542	294.336060	-365.271179	353.392761
6874.444868	291.121552	-361.589111	341.820587
6874.448200	288.082397	-357.790192	330.774414
6874.451532	285.803040	-353.757446	320.312653
6874.454869	282.646973	-349.841614	309.675629
6874.458202	278.848022	-346.218018	299.389252
6874.461529	275.925751	-343.120392	290.037994
6874.464864	273.295715	-339.321442	280.452942
6874.468219	269.730560	-335.580933	272.212158
6874.471530	266.223846	-332.015778	263.796021
6874.474860	262.950897	-328.567505	256.022797
6874.478200	259.911743	-325.528351	247.665100
6874.481529	257.515503	-322.372284	240.651642
6874.484863	254.359451	-319.683807	233.229095
6874.488197	251.261856	-316.586212	226.800110
6874.491528	248.222687	-313.605499	220.137329
6874.494856	245.008179	-311.092346	214.760376
6874.498196	241.793701	-307.293396	208.682068
6874.501528	238.637634	-304.721802	203.421967
6874.504859	236.592056	-302.793091	197.635895
6874.508190	233.436005	-300.046173	192.784912
6874.511544	230.455292	-297.533020	187.466400
6874.514862	227.591461	-295.604309	183.316772
6874.518192	225.838104	-292.214478	179.108704
6874.521518	222.565170	-290.285797	174.608429
6874.524865	220.461151	-287.188202	170.049683
6874.528192	217.889542	-284.791931	166.250732
6874.531526	215.610168	-282.454132	161.575104
6874.534857	213.213913	-279.531860	157.717712
6874.538189	211.577454	-277.252472	154.386322
6874.541527	209.648743	-275.089996	150.119812
6874.544856	207.661606	-272.752197	146.379303
6874.548211	205.382233	-270.355927	143.749268
6874.551520	203.570435	-267.258331	140.242554
6874.554852	202.050842	-264.978973	136.560486
6874.559586	199.070145	-260.478668	129.897705
6874.562912	197.141434	-257.673279	127.209236
6874.566278	195.563416	-255.218567	124.286964
6874.569169	194.160736	-253.289886	120.838692
6874.572860	192.582703	-251.887192	117.390419
6874.576238	190.946243	-249.490952	115.169502
6874.579132	189.485107	-247.679138	112.130333
6874.582435	188.374649	-245.107529	109.558739
6874.585777	186.679733	-243.178833	106.519569
6874.589458	185.277039	-241.659256	104.941551
6874.592417	183.815903	-240.607254	101.610161
6874.595696	182.822327	-237.684982	99.915245
6874.599079	181.361191	-235.990067	98.044991
6874.602396	180.426071	-234.645813	95.765633
6874.605829	178.964951	-233.476929	93.194038
6874.609098	177.854477	-231.489777	92.258919
6874.612373	176.276459	-230.554642	89.862648
6874.615693	175.458206	-229.210403	88.343086
6874.619033	174.055527	-227.983047	87.291054
6874.622418	172.535950	-226.814148	86.063698
6874.625727	171.483932	-225.528351	85.479256
6874.629110	170.841034	-225.645233	83.433678
6874.632462	170.490372	-223.891876	83.082985
6874.635781	169.496796	-223.073639	81.855644
6874.639027	168.327881	-222.080063	80.511391
6874.642385	167.275864	-222.489182	80.569847
6874.645689	166.457642	-221.437164	78.874931
6874.649057	165.522507	-220.326706	77.764473
6874.652389	164.704269	-220.151367	77.998253
6874.655843	164.119827	-219.683807	77.530693
6874.659123	163.476913	-219.566910	75.718880
6874.662428	163.418472	-218.748688	75.426659
6874.665696	161.782013	-218.748688	75.017525
6874.669026	161.782013	-217.988892	74.491524
6874.671950	161.548233	-217.755127	74.666862
6874.675266	160.905319	-217.170670	73.556396
6874.678648	160.262421	-216.469315	73.205727
6874.681939	160.028641	-216.469315	72.562836
6874.685312	160.262421	-215.767975	72.387489
6874.688628	159.794861	-215.592636	71.803040
6874.691976	159.327301	-215.417313	71.919922
6874.695271	158.976639	-214.657516	70.283455
6874.698605	158.742859	-214.423721	70.458801
6874.701929	159.385742	-214.073059	70.751015
6874.705258	159.385742	-213.839264	70.283455
6874.708603	159.035065	-213.722397	70.108124
6874.711927	158.567505	-213.137939	69.699005
6874.715262	158.509064	-212.728806	68.997665
6874.718605	159.035065	-212.904144	69.231445
6874.721977	158.275284	-212.670364	69.465225
6874.725285	159.677979	-212.436584	69.114548
6874.728625	159.327301	-212.261246	68.588547
6874.731931	158.275284	-212.319687	68.997665
6874.735258	159.561081	-212.495026	69.465225
6874.738596	159.736420	-212.670364	69.523674
6874.741928	159.619522	-212.553467	69.523674
6874.745281	160.613098	-212.261246	69.699005
6874.748592	160.087097	-213.137939	70.225021
6874.751928	160.554657	-213.313263	69.874344
6874.754836	160.262421	-213.547058	71.218582
6874.758165	160.320877	-214.131500	70.634132
6874.761505	160.846878	-215.183517	71.160141
6874.764837	161.197556	-215.709518	71.393929
6874.768165	162.366455	-216.118637	72.212151
6874.771505	162.191116	-216.819992	73.147278
6874.774833	162.424911	-217.930450	74.316185
6874.778197	162.600235	-218.924011	74.900642
6874.781500	163.593811	-219.859146	75.192879
6874.784830	164.236710	-220.969604	76.303337
6874.788161	163.886047	-222.021622	77.706017
6874.791497	164.528931	-223.132080	79.225594
6874.794826	165.405609	-223.950317	80.219170
6874.798163	165.990067	-225.645233	81.271187
6874.801496	167.100525	-226.697250	82.440102
6874.804831	167.509644	-228.041504	83.959663
6874.808162	168.912338	-229.093506	86.472832
6874.811496	169.146118	-230.671539	87.115730
6874.814827	170.957932	-232.191101	88.693748
6874.818157	171.308594	-233.301590	90.388664
6874.821498	172.126831	-234.821152	91.908241
6874.824827	174.230865	-236.340729	94.655174
6874.828158	174.639984	-238.035645	95.648750
6874.831493	175.575104	-239.263000	97.752785
6874.834829	177.386917	-240.373459	100.090599
6874.838175	178.380478	-242.360611	101.434837
6874.841495	179.841614	-243.646408	103.480415
6874.844827	180.659851	-244.990662	104.649330
6874.848173	182.588547	-246.276443	106.870247
6874.851493	183.815903	-247.620697	109.266518
6874.854829	185.569275	-249.374054	111.428993
6874.858162	186.796616	-251.127411	113.299248
6874.861495	188.549973	-251.536530	114.877266
6874.864818	189.777328	-253.056122	117.624199
6874.868158	191.764465	-254.692581	119.845116
6874.871487	193.634720	-256.445923	122.592049
6874.874825	194.803619	-258.374634	125.046761
6874.878156	196.790771	-259.894226	127.209236
6874.881486	197.901230	-262.290466	130.482178
6874.884824	199.713028	-264.160736	132.936890
6874.888156	201.057281	-266.732300	135.683807
6874.891487	202.518417	-268.602600	138.372284
6874.894821	204.330231	-271.057281	142.755707
6874.898155	205.966690	-272.985992	146.846863
6874.901483	208.070724	-275.499115	149.418488
6874.904822	209.590302	-278.421387	153.275848
6874.908153	211.343658	-281.051453	157.834595
6874.911507	212.512573	-283.330780	161.107544
6874.914822	214.967270	-286.136169	165.841614
6874.918150	216.019287	-289.058441	170.575684
6874.921525	218.473999	-292.389832	175.251312
6874.924833	220.402695	-295.136749	180.452942
6874.928150	221.863831	-297.825226	184.953247
6874.931481	224.260086	-301.098175	190.505554
6874.934817	225.779678	-304.897125	195.005859
6874.938154	228.585052	-307.819397	201.434845
6874.941480	230.163071	-311.033875	207.571564
6874.944815	232.500885	-314.423737	214.059021
6874.948145	235.014023	-317.988892	220.195801
6874.951480	237.585632	-321.554047	226.741669
6874.954845	239.923447	-324.417877	234.164215
6874.958147	242.553497	-328.216827	241.294556
6874.961480	244.949738	-331.080658	248.717102
6874.964811	247.345993	-334.821136	255.730560
6874.968148	250.385162	-338.035645	263.562225
6874.971482	252.898300	-341.483917	270.867889
6874.974814	255.469910	-344.873749	278.699585
6874.978144	258.216827	-348.029785	286.706604
6874.981482	261.314423	-351.068970	294.596710
6874.984823	263.886047	-353.932770	303.831085
6874.988152	266.516083	-357.264191	313.357697
6874.991473	269.730560	-360.361786	323.351837
6874.994808	272.477478	-363.284027	331.709534
6874.998176	275.633545	-365.914093	340.534760
6875.001477	279.023376	-369.654572	350.821136
6875.004812	281.653412	-373.161316	360.756836
6875.008143	284.984772	-376.434265	371.218567
6875.011492	288.374634	-379.882507	381.680267
6875.014811	290.537109	-382.980133	392.434235
6875.018140	293.634705	-385.785492	403.421936
6875.021475	295.504944	-389.116882	415.111053
6875.024812	298.661011	-391.922241	428.144348
6875.028142	301.349487	-395.428986	440.417877
6875.031471	303.453522	-398.935730	453.977173
6875.034802	305.089996	-401.448853	466.601410
6875.038143	307.135590	-404.780243	479.926971
6875.041485	309.590302	-407.644073	493.486237
6875.044807	311.928101	-411.793671	508.448273
6875.048142	313.915253	-414.657501	522.884277
6875.051484	315.551727	-417.638214	538.547668
6875.054815	316.603729	-420.151367	554.912354
6875.058135	318.649323	-423.190552	570.984863
6875.061470	319.467560	-425.937469	588.226257
6875.064803	320.987122	-429.151947	606.285828
6875.068138	321.922272	-430.846863	623.468750
6875.071470	322.156067	-433.418457	641.353027
6875.074804	323.091187	-435.931641	660.640015
6875.078131	323.266510	-437.334290	678.816528
6875.081466	323.558746	-439.029205	698.571045
6875.084810	323.208038	-440.256592	717.390442
6875.088139	323.909393	-441.951508	738.723022
6875.091465	323.500275	-442.477509	757.659302
6875.094800	323.324951	-442.828186	778.933411
6875.098129	322.974274	-442.945038	798.746338
6875.101463	322.214478	-442.185242	820.488037
6875.104797	320.753326	-441.250122	841.002319
6875.108132	320.344238	-440.256592	862.159607
6875.111468	319.526001	-438.678558	882.907654
6875.114801	317.831085	-437.158966	904.181824
6875.118157	316.369934	-434.996521	925.631165
6875.121460	314.616577	-431.782013	948.015808
6875.124793	312.746338	-429.035095	967.770325
6875.128144	310.174744	-426.580383	989.102844
6875.131464	307.252472	-421.787842	1009.325012
6875.134794	304.797760	-418.398010	1030.189941
6875.138127	301.349487	-413.371704	1049.359985
6875.141465	297.492096	-408.403839	1068.763794
6875.144793	294.628296	-402.734650	1088.167603
6875.148129	290.361755	-396.597900	1106.811768
6875.151464	285.627716	-390.636475	1126.449341
6875.154790	281.302734	-383.798370	1144.976562
6875.158126	275.282867	-377.486267	1163.153076
6875.161462	269.321442	-370.297485	1179.342407
6875.164816	262.600250	-362.524231	1197.518921
6875.168124	255.879013	-354.926361	1213.766724
6875.171469	248.924042	-345.925781	1229.137939
6875.174792	241.618362	-337.509644	1245.853271
6875.178127	233.143784	-328.450592	1260.639893
6875.181462	224.435425	-318.690247	1275.601929
6875.184795	214.850403	-308.403839	1289.219727
6875.188134	204.914673	-297.591461	1302.837402
6875.191463	195.095856	-286.603729	1315.870728
6875.194794	184.517242	-275.440674	1327.384521
6875.199408	162.308014	-251.244308	1347.665161
6875.202806	150.268280	-238.853882	1356.490356
6875.206202	138.228531	-225.236130	1365.140259
6875.209120	125.312103	-211.501465	1371.978394
6875.212378	112.629456	-196.948578	1379.050293
6875.215746	100.589706	-181.869675	1386.355835
6875.219402	87.205727	-166.615417	1390.680908
6875.222766	74.756866	-151.068970	1393.427734
6875.225665	61.255989	-136.106949	1393.661621
6875.228994	48.339569	-118.807137	1394.947388
6875.232403	35.481590	-102.208649	1394.304443
6875.235717	22.506721	-85.610168	1393.018677
6875.239050	9.005845	-68.894798	1390.447021
6875.242294	-3.910580	-51.828754	1386.414307
6875.245631	-15.307423	-34.002922	1381.680298
6875.248964	-27.697836	-17.112215	1374.842163
6875.252384	-39.328461	1.531853	1368.237915
6875.255675	-50.842194	17.779659	1361.282837
6875.259070	-62.063705	35.663940	1353.275879
6875.262377	-73.168327	52.554649	1343.924561
6875.265651	-83.922264	69.036240	1334.865601
6875.268959	-94.617775	85.926941	1325.514282
6875.272306	-104.202805	101.473404	1314.117432
6875.275680	-114.781418	118.130325	1303.246582
6875.278989	-124.834007	133.559906	1291.674438
6875.282376	-134.068375	149.047928	1280.102295
6875.285704	-142.952072	163.659271	1266.426025
6875.289014	-152.770889	178.212158	1253.860229
6875.292298	-161.420807	191.829926	1240.417847
6875.295683	-170.713608	205.739929	1225.806519
6875.298958	-179.363525	218.597900	1211.253662
6875.302327	-187.604309	231.397415	1196.876099
6875.305214	-195.845108	244.138519	1183.024536
6875.308556	-203.559906	255.301575	1166.659790
6875.311890	-211.859131	267.049103	1150.937988
6875.315278	-219.340134	278.445953	1135.742187
6875.318583	-226.821136	289.433685	1118.968384
6875.321869	-234.302170	299.077148	1103.421997
6875.325210	-241.081818	309.889526	1087.115601
6875.328529	-247.803024	319.649902	1069.289917
6875.331877	-254.641129	329.001160	1052.048462
6875.335205	-260.953247	337.183533	1035.683838
6875.338569	-266.563995	345.716553	1016.747498
6875.341894	-272.466980	354.191101	999.798401
6875.345222	-278.837524	361.204559	982.031067
6875.348559	-283.045593	368.860901	965.549438
6875.351918	-288.188782	375.582123	947.489807
6875.355202	-292.689087	382.244873	929.605530
6875.358533	-296.546478	388.147888	912.305725
6875.361881	-301.105225	393.583313	893.310974
6875.365195	-304.670380	398.726471	875.952698
6875.368532	-307.241974	403.811218	859.412659
6875.371863	-309.813568	408.545319	842.054443
6875.375199	-311.800720	413.220947	824.637634
6875.378550	-313.904724	417.428986	807.571655
6875.381921	-315.833435	421.169464	791.382263
6875.385225	-317.528351	423.624176	775.426636
6875.388538	-318.405029	426.429565	758.652832
6875.391862	-320.099945	429.936310	743.047974
6875.394765	-320.099945	431.455841	727.501465
6875.398098	-320.684418	434.085907	712.247253
6875.401440	-320.392181	435.430145	698.921692
6875.404765	-320.392181	437.651062	683.901245
6875.408106	-320.859741	438.410858	670.225037
6875.411430	-320.567505	439.287567	657.425476
6875.414765	-320.099945	440.164246	645.444214
6875.418103	-319.398621	440.339569	632.761597
6875.421438	-318.814148	441.216248	620.312683
6875.424772	-317.762146	440.398041	607.454712
6875.428103	-317.119232	440.456451	596.116333
6875.431434	-316.359436	440.514893	584.485718
6875.434767	-315.541229	439.521301	573.381104
6875.438100	-314.606079	438.995331	561.867310
6875.441432	-313.437164	438.060181	550.938110
6875.444760	-313.086517	437.300415	540.067261
6875.448119	-311.742249	435.430145	529.722412
6875.451433	-310.398041	434.670349	519.260681
6875.454798	-310.047363	432.858582	509.617157
6875.458098	-309.170685	430.637634	499.038605
6875.461432	-307.884888	429.644073	490.154877
6875.464761	-306.774414	427.364685	480.102264
6875.468116	-305.488617	425.436035	470.225006
6875.471432	-305.021057	423.098175	461.341339
6875.474764	-302.975464	421.403259	451.405609
6875.478093	-302.098785	419.065491	442.755676
6875.481426	-300.929871	416.961426	434.105804
6875.484757	-299.819427	414.798920	424.520752
6875.488098	-298.475159	411.993561	414.935699
6875.491426	-296.663391	409.363525	406.578033
6875.494756	-295.669800	407.084167	397.986542
6875.498120	-294.267090	404.512543	390.914642
6875.501425	-292.864410	402.876099	382.206329
6875.504756	-291.227966	399.895386	374.316193
6875.508093	-289.533051	397.089996	367.302734
6875.511443	-288.013458	394.985962	359.646393
6875.514762	-286.376984	392.823517	351.931610
6875.518094	-284.682068	389.667480	344.509064
6875.521421	-282.110474	387.504974	338.138519
6875.524758	-280.532440	385.517822	331.709534
6875.528085	-278.486877	383.413788	325.514313
6875.531423	-276.967285	381.485107	319.962006
6875.534761	-274.863251	379.088837	313.649902
6875.538086	-273.109894	376.809448	307.863800
6875.541441	-270.830505	374.997681	301.493256
6875.544754	-269.953857	372.952087	296.759186
6875.548090	-267.499146	370.789612	292.141998
6875.551421	-265.921112	369.503815	287.232605
6875.554756	-264.167755	366.932190	282.440094
6875.558086	-263.115723	365.471069	277.998230
6875.561419	-261.420807	363.367035	274.783752
6875.564751	-259.667450	361.204559	270.634125
6875.568084	-257.855652	359.684967	267.010529
6875.571436	-257.154297	357.464050	263.328461
6875.574806	-255.225601	355.769135	259.646393
6875.578086	-253.998245	353.781982	256.373444
6875.581420	-252.770889	352.203979	252.925171
6875.584762	-251.075974	351.093506	249.827576
6875.588082	-249.439499	348.989502	246.963776
6875.591419	-248.679703	347.060791	243.632355
6875.594747	-247.569260	345.015198	240.593231
6875.598079	-246.692581	343.904724	237.261810
6875.601420	-246.049667	342.092926	234.631775
6875.604747	-244.588547	340.164246	231.475739
6875.608082	-243.653427	338.352417	229.021027
6875.611419	-243.068954	336.482178	227.033905
6875.614769	-242.016937	335.313263	224.462280
6875.618080	-240.789581	333.384552	221.540009
6875.621416	-240.088257	331.689636	219.436005
6875.624745	-239.094666	331.338989	216.864380
6875.628080	-238.159546	329.468719	214.234344
6875.631412	-237.399750	327.715363	211.428986
6875.634749	-235.763290	326.254242	209.383392
6875.638083	-235.646393	324.851532	207.220917
6875.641415	-234.886597	323.273529	204.941559
6875.644747	-233.367050	322.338379	202.603729
6875.648103	-232.315018	320.701935	200.558136
6875.651445	-232.256561	319.825256	198.921692
6875.654743	-231.321442	318.188782	195.940979
6875.658099	-230.327866	317.370544	194.479828
6875.661408	-229.568085	316.260071	192.317352
6875.664743	-229.275848	315.500275	190.563995
6875.668074	-228.457626	314.156067	189.862671
6875.671407	-227.464066	313.980713	187.407959
6875.674742	-227.405594	312.519592	186.706604
6875.678075	-225.944473	312.461151	185.654602
6875.681405	-225.652252	311.876678	184.777924
6875.684740	-225.067795	311.701355	183.901215
6875.688074	-224.191116	310.532440	183.199890
6875.691407	-223.548203	310.649323	182.381622
6875.694755	-223.665100	309.889526	181.738739
6875.698073	-222.671539	309.129730	181.095856
6875.701404	-222.379303	310.123322	181.680298
6875.704743	-222.496201	309.538879	180.978943
6875.708072	-222.145508	309.889526	180.277618
6875.711406	-222.496201	309.772644	181.446503
6875.714742	-221.502625	309.889526	180.978943
6875.718119	-221.794846	310.064880	181.563416
6875.721407	-220.742828	309.538879	181.388062
6875.724743	-221.268845	309.831085	181.855652
6875.728066	-221.327286	310.298676	182.673859
6875.731401	-221.268845	310.064880	182.264771
6875.734735	-220.625961	310.006439	182.264771
6875.738095	-221.093521	310.415558	183.316772
6875.741402	-221.619522	310.766235	183.784363
6875.744735	-222.145508	310.766235	184.076569
6875.748075	-222.379303	310.240204	184.251923
6875.751400	-222.145508	311.409119	185.654602
6875.754738	-222.320847	311.526001	185.303894
6875.758064	-222.905304	311.409119	185.537689
6875.761405	-222.846878	311.701355	185.946808
6875.764733	-223.431335	311.935120	186.005280
6875.768083	-223.781998	312.636475	186.998840
