time (s)	magX	magY	magZ
4438.359183	388.009918	-151.249557	-216.232040
4438.362503	383.275848	-149.379303	-209.978394
4438.365842	378.483337	-148.911743	-203.257156
4438.369200	373.690826	-147.450607	-197.529510
4438.372538	369.190521	-146.047913	-191.334320
4438.375864	364.807129	-144.820572	-185.139099
4438.379246	360.774384	-144.060791	-179.411453
4438.382516	356.683197	-142.833435	-174.385162
4438.385846	352.241364	-141.722977	-169.300400
4438.389185	347.916412	-140.320282	-163.981888
4438.392531	344.468140	-139.268265	-159.598480
4438.395839	340.844543	-137.690247	-154.630630
4438.399181	336.461121	-136.462891	-150.656342
4438.402082	333.071289	-135.293976	-146.740509
4438.405421	329.973694	-133.832840	-142.883102
4438.408748	326.700745	-132.839264	-139.084167
4438.412080	323.895386	-131.495026	-136.512558
4438.415421	319.745758	-130.150787	-132.596725
4438.418744	317.407928	-128.572769	-129.031555
4438.422102	315.070129	-127.754532	-126.576859
4438.425418	312.673859	-126.760956	-123.713028
4438.428794	308.933350	-125.708946	-121.375214
4438.432083	306.946228	-124.247810	-118.394501
4438.435423	304.374634	-123.078903	-116.115143
4438.438748	301.803009	-122.202225	-113.251312
4438.442079	300.341888	-120.565758	-112.549973
4438.445413	298.179413	-120.741089	-110.153717
4438.448743	295.783173	-119.104622	-107.757454
4438.452081	294.380463	-117.760384	-106.296318
4438.455421	292.101105	-116.942139	-104.250732
4438.458746	290.523071	-115.831680	-102.146698
4438.462083	288.828156	-115.013443	-100.393341
4438.465439	286.431915	-114.078316	-99.341324
4438.468747	284.737000	-113.727646	-97.120399
4438.472076	282.983612	-112.850967	-96.009933
4438.475407	281.054932	-111.506721	-94.081238
4438.478746	278.424896	-111.156052	-92.094101
4438.482072	277.431335	-110.922272	-90.983635
4438.485409	275.151947	-109.987144	-88.879608
4438.488741	273.690826	-110.045593	-87.593811
4438.492071	271.762115	-109.519585	-85.840446
4438.495435	270.593201	-108.759796	-83.970192
4438.498740	268.722961	-108.876686	-83.561073
4438.502093	266.852722	-108.701347	-81.340149
4438.505405	265.274689	-108.584457	-79.469902
4438.508763	263.521332	-107.766220	-78.067215
4438.512072	261.826416	-107.941551	-76.839859
4438.515405	261.066620	-107.240211	-75.144943
4438.518739	258.962585	-106.655754	-74.794273
4438.522074	258.319702	-106.597313	-72.222679
4438.525408	256.390991	-106.363533	-71.813560
4438.528733	255.514328	-106.305084	-70.703094
4438.532072	254.286972	-106.012863	-70.469315
4438.535403	252.767380	-105.603745	-68.715958
4438.538735	252.124496	-105.486847	-69.008186
4438.542070	251.540024	-105.019287	-67.605492
4438.545398	250.780243	-104.376389	-66.845703
4438.548739	249.845108	-104.376389	-66.553482
4438.552075	249.494446	-103.967270	-65.326126
4438.555399	249.319107	-103.850380	-65.267677
4438.558733	248.851547	-103.499710	-65.326126
4438.562066	249.026886	-103.967270	-65.326126
4438.565402	248.851547	-103.207489	-64.566338
4438.568736	248.851547	-103.149040	-64.157219
4438.572078	248.909988	-102.506142	-64.566338
4438.575399	249.085342	-102.564583	-64.858566
4438.578731	248.559326	-102.681473	-65.618355
4438.582092	249.026886	-102.973701	-65.969025
4438.585399	249.085342	-102.856812	-66.027473
4438.588729	249.026886	-102.856812	-66.085915
4438.592063	248.793121	-102.623032	-65.910583
4438.595410	249.143784	-103.032143	-66.904152
4438.598728	249.845108	-102.681473	-67.254822
4438.602060	250.371140	-103.032143	-67.079483
4438.605399	250.195801	-102.739922	-67.254822
4438.608732	251.130936	-102.856812	-67.371712
4438.612062	251.247803	-103.324379	-68.073059
4438.615397	251.189362	-103.558159	-68.365288
4438.618725	251.598495	-103.558159	-68.365288
4438.622063	251.715363	-104.084160	-69.534195
4438.625416	252.066055	-104.610176	-68.949738
4438.628722	251.949158	-105.077736	-69.417297
4438.632064	252.299820	-105.136177	-69.534195
4438.635392	252.708954	-105.662193	-70.352425
4438.638724	252.825851	-106.071304	-70.118645
4438.642064	253.936310	-106.831093	-70.703094
4438.645428	254.053177	-107.415550	-71.755112
4438.648731	253.819412	-108.409119	-71.521332
4438.652061	254.637634	-108.584457	-71.872009
4438.655394	254.812973	-109.168907	-73.040909
4438.658724	255.806549	-109.811813	-73.508476
4438.662057	256.040314	-110.630043	-73.800705
4438.665389	257.092346	-110.922272	-75.028053
4438.668757	257.559906	-111.623611	-74.268265
4438.672060	258.904144	-112.149628	-75.904739
4438.675386	259.839264	-112.967857	-76.898308
4438.678723	261.183502	-113.610756	-77.774986
4438.682066	262.936890	-114.019875	-79.236122
4438.685388	264.690247	-114.662773	-79.820572
4438.688724	266.034454	-115.539452	-81.515488
4438.692053	267.612518	-115.481003	-83.210403
4438.695388	269.599640	-116.416130	-85.723557
4438.698718	271.119202	-117.000587	-86.658676
4438.702059	272.931030	-117.234367	-88.762711
4438.705390	274.567474	-118.695511	-90.457626
4438.708718	277.197540	-119.104622	-92.912338
4438.712063	279.301575	-119.630630	-94.841034
4438.715385	281.288727	-120.624199	-96.419052
4438.718759	283.509644	-121.091759	-98.113968
4438.722054	285.496796	-122.494446	-101.036240
4438.725388	287.951477	-123.663353	-102.964935
4438.728720	290.113953	-124.130913	-106.939224
4438.732047	292.159546	-124.949158	-108.809471
4438.735387	295.198700	-125.767387	-110.913498
4438.738716	297.361176	-126.644073	-114.537109
4438.742050	299.757446	-128.105209	-117.050262
4438.745383	302.095245	-129.507889	-119.446533
4438.748715	304.316193	-130.852127	-122.076569
4438.752052	307.238434	-131.728806	-124.823502
4438.755398	309.400909	-133.365280	-128.213333
4438.758714	311.621857	-134.534180	-130.668030
4438.762048	314.661011	-136.287552	-134.350082
4438.765383	317.407928	-138.508469	-136.921692
4438.768717	319.336639	-140.028061	-140.019287
4438.772051	321.499115	-141.196960	-142.766220
4438.775381	323.836914	-142.774979	-146.272949
4438.778713	326.174744	-144.937469	-149.078323
4438.782046	328.921661	-146.749268	-153.169495
4438.785381	330.967255	-148.736404	-156.208649
4438.788708	333.714203	-149.788422	-159.306259
4438.792084	336.811798	-151.775558	-163.455872
4438.795377	339.967834	-153.178253	-167.722382
4438.798743	343.182343	-154.522491	-171.871994
4438.802042	345.753937	-157.035645	-177.015198
4438.805382	349.085327	-158.087662	-182.158386
4438.808710	351.949158	-160.016357	-186.950912
4438.812059	355.455841	-161.711273	-191.801880
4438.815373	359.137909	-163.581528	-197.763290
4438.818708	363.229095	-165.393326	-203.432495
4438.822040	367.144928	-167.322037	-209.043243
4438.825379	370.476318	-168.783173	-215.180008
4438.828706	375.268829	-170.711853	-221.842789
4438.832038	379.067780	-171.880768	-228.154877
4438.835373	383.509644	-173.809464	-235.811234
4438.838710	388.126831	-175.738159	-242.532440
4438.842044	392.217987	-177.491531	-251.007019
4438.845371	396.250732	-179.244873	-258.663361
4438.848762	401.218567	-181.056686	-267.547058
4438.852038	406.011108	-182.751602	-275.846283
4438.855368	410.219177	-184.504959	-284.846863
4438.858710	415.303925	-186.433670	-293.964355
4438.862044	419.161285	-188.713028	-302.555817
4438.865370	423.661591	-191.050842	-312.199310
4438.868701	427.928101	-193.154877	-321.550568
4438.872039	433.129700	-195.492691	-331.661591
4438.875368	437.045593	-198.122726	-342.123322
4438.878737	441.078308	-199.759201	-353.578613
4438.882033	445.227936	-202.447693	-364.800110
4438.885371	448.793091	-205.019287	-375.729401
4438.888700	453.994720	-207.590881	-386.717133
4438.892034	458.261230	-210.104034	-398.698425
4438.895366	461.826385	-213.376968	-409.627686
4438.898702	464.690247	-215.773224	-422.777924
4438.902031	468.722931	-217.877274	-434.525452
4438.905369	471.995911	-221.091751	-447.149628
4438.908700	475.794861	-223.897125	-459.247833
4438.913430	482.223816	-228.981873	-486.015778
4438.916740	484.970795	-231.495026	-500.276459
4438.920060	488.009918	-233.657501	-513.894226
4438.923447	492.451782	-236.696671	-528.680847
4438.926778	495.315582	-239.034485	-545.688477
4438.929673	497.828735	-241.372299	-561.059570
4438.932968	499.932800	-243.651657	-576.606018
4438.936633	502.095245	-245.521912	-592.970764
4438.939998	504.491486	-247.742844	-610.036804
4438.942912	507.589111	-249.496201	-627.044434
4438.946252	508.407318	-251.717117	-644.285767
4438.949616	510.043823	-252.535339	-662.871399
4438.952962	512.264771	-254.405594	-682.158325
4438.956346	513.258362	-255.223846	-701.094666
4438.959549	514.193481	-255.457626	-719.972534
4438.962875	514.836365	-256.334320	-741.129761
4438.966222	515.713013	-257.094116	-762.053162
4438.969569	515.303955	-257.269440	-782.509033
4438.972937	515.245483	-257.269440	-802.789551
4438.976305	515.245483	-257.152557	-825.057251
4438.979621	512.732300	-257.094116	-847.032715
4438.982977	511.037384	-256.977203	-869.183533
4438.986226	508.933380	-256.100525	-891.100464
4438.989537	505.426636	-256.217407	-914.595581
4438.992899	502.036774	-255.516083	-937.330811
4438.996246	498.530090	-254.230270	-960.007507
4438.999554	492.977783	-252.769135	-982.742859
4439.002952	486.081238	-251.892456	-1005.185852
4439.006310	480.061371	-250.314423	-1027.161255
4439.009541	473.340149	-248.736404	-1048.727661
4439.012868	465.917572	-247.684387	-1070.177124
4439.016247	458.202820	-246.106369	-1091.977295
4439.019562	449.845093	-244.177673	-1112.959106
4439.022895	440.844513	-241.781403	-1133.356567
4439.026294	430.265930	-240.320282	-1153.403320
4439.029618	420.213287	-238.859131	-1173.859131
4439.032926	408.991821	-236.345993	-1193.321411
4439.036205	398.004089	-233.891281	-1211.498047
4439.039542	385.321411	-231.378128	-1230.025146
4439.042893	373.106354	-228.397415	-1247.617187
4439.046232	359.196381	-225.066040	-1264.449585
4439.049117	345.578613	-221.734650	-1280.931030
4439.052469	331.551727	-218.344833	-1295.191650
4439.055801	316.589722	-213.961426	-1310.446045
4439.059161	301.686157	-209.110458	-1325.174194
4439.062450	285.789001	-204.201050	-1338.499756
4439.065770	269.599640	-199.116302	-1351.416138
4439.069111	253.410278	-193.271774	-1362.637695
4439.072450	236.987152	-187.193451	-1373.216309
4439.075768	219.278214	-180.296906	-1383.677979
4439.079103	201.160141	-173.751022	-1392.970825
4439.082442	182.574524	-166.153122	-1400.334961
4439.085798	164.573349	-157.970779	-1408.049683
4439.089126	144.760376	-149.729980	-1414.595581
4439.092466	125.356522	-140.437164	-1419.446533
4439.095804	105.894218	-131.202805	-1422.953247
4439.099112	85.672127	-121.617767	-1425.992432
4439.102451	65.508476	-111.974289	-1427.921143
4439.105776	45.052601	-101.804794	-1428.447144
4439.109103	24.596727	-91.343079	-1427.921143
4439.112438	3.439509	-80.939804	-1425.758667
4439.115773	-17.893044	-70.419640	-1422.544067
4439.119133	-38.407364	-60.016365	-1418.453003
4439.122458	-59.389248	-48.911747	-1412.257812
4439.125804	-80.137344	-38.683811	-1406.004150
4439.129141	-100.184105	-28.689655	-1398.756958
4439.132443	-121.224426	-18.753946	-1390.282349
4439.135769	-140.745178	-7.181766	-1381.340210
4439.138704	-160.032135	3.630625	-1371.112305
4439.142430	-179.552887	12.689653	-1359.773804
4439.145341	-198.372299	21.164228	-1347.500366
4439.148677	-217.016373	29.755697	-1335.343628
4439.152008	-234.783752	38.580948	-1320.673828
4439.155345	-252.375809	46.646408	-1307.231445
4439.158671	-268.682068	54.361191	-1294.139648
4439.162014	-285.397430	61.900642	-1278.768555
4439.165344	-301.353027	69.264755	-1264.391113
4439.168673	-316.607269	75.459961	-1248.902954
4439.172010	-330.751038	82.414963	-1233.473389
4439.175338	-345.420807	88.493279	-1217.985474
4439.178677	-358.220337	95.448265	-1201.503906
4439.182040	-371.078339	100.883690	-1184.203979
4439.185339	-383.351837	107.897125	-1167.079468
4439.188675	-394.514923	113.858559	-1150.247192
4439.192007	-405.794891	119.586205	-1132.012329
4439.195335	-416.256592	124.963173	-1115.589111
4439.198673	-425.900055	130.457047	-1096.185303
4439.202005	-435.017578	136.652252	-1079.119263
4439.205335	-443.024567	141.678558	-1059.656860
4439.208670	-451.206909	147.172424	-1041.538940
4439.212036	-458.980164	152.198715	-1023.245483
4439.215334	-465.526031	157.225021	-1004.484497
4439.218672	-473.299255	162.601990	-985.957275
4439.222011	-479.377594	168.037415	-966.845642
4439.225340	-484.637665	173.122147	-948.961426
4439.228664	-489.488617	177.914673	-929.674377
4439.231997	-494.456451	182.940979	-910.270569
4439.235336	-498.664551	187.382812	-890.749817
4439.238664	-501.703735	191.766235	-872.339478
4439.242027	-505.093506	195.506729	-853.227905
4439.245330	-507.489807	199.071884	-834.759216
4439.248660	-510.002930	202.870850	-815.881287
4439.252027	-511.522522	205.851547	-798.113953
4439.255357	-513.977234	208.364700	-779.645203
4439.258668	-515.321472	210.936310	-762.111572
4439.261996	-515.672119	213.332550	-746.331360
4439.265335	-516.957947	215.144363	-728.096375
4439.268671	-517.425537	216.839279	-711.381042
4439.271991	-516.782593	217.715958	-694.022766
4439.275329	-517.659241	219.235535	-678.184082
4439.278663	-516.841064	219.586197	-662.579163
4439.281997	-516.607239	219.819992	-647.208008
4439.285357	-515.438354	220.579788	-631.778442
4439.288665	-514.503235	219.995331	-617.342468
4439.291999	-513.392761	220.345993	-604.133789
4439.295330	-512.457642	219.644669	-590.632935
4439.298671	-510.528931	219.761566	-577.482727
4439.301995	-508.775574	218.943314	-564.566284
4439.305332	-507.080688	218.066635	-551.942139
4439.308659	-505.385742	217.131516	-539.785522
4439.311993	-503.457031	216.021042	-526.985962
4439.315322	-501.177673	214.910568	-515.998230
4439.318710	-498.781433	215.319702	-504.659851
4439.321999	-496.209839	213.741684	-494.198120
4439.325323	-493.287537	212.806549	-484.320862
4439.328694	-491.241943	212.455887	-473.917572
4439.331991	-488.085907	211.637634	-463.864990
4439.335321	-485.163666	210.527176	-453.637054
4439.338651	-481.656952	210.059616	-444.110474
4439.342004	-479.377594	209.124496	-435.811218
4439.345325	-475.929291	208.773819	-426.167755
4439.348657	-473.182373	208.130936	-416.524261
4439.351991	-469.850983	207.604904	-407.523682
4439.355327	-466.402710	206.845108	-398.347748
4439.358657	-461.785522	205.909988	-390.106964
4439.361990	-459.038574	205.150223	-381.632385
4439.365317	-455.765656	204.799530	-372.865570
4439.368651	-451.206909	204.390427	-365.326141
4439.372007	-448.109314	203.163071	-357.143768
4439.375320	-444.076569	202.520172	-348.493866
4439.378656	-441.095856	201.994156	-341.012848
4439.381986	-437.296906	201.818817	-333.999420
4439.385370	-434.023987	200.825256	-324.765045
4439.388653	-429.640564	199.656342	-318.920502
4439.391982	-426.075378	198.253647	-311.614838
4439.395321	-422.919342	197.552322	-304.659851
4439.398650	-419.938629	196.441864	-297.938629
4439.401982	-416.256592	195.565170	-292.503204
4439.405321	-412.866760	194.630051	-286.074219
4439.408652	-409.301605	193.285797	-279.352997
4439.411982	-406.262421	191.473999	-274.268250
4439.415346	-402.989502	190.947983	-268.832825
4439.418651	-400.067200	189.428391	-262.345398
4439.421986	-397.904755	188.259506	-257.494446
4439.425317	-394.865601	186.155457	-252.818817
4439.428650	-392.001740	185.220337	-248.844543
4439.431978	-389.430176	183.934540	-244.694916
4439.435312	-386.274109	183.057877	-240.194626
4439.438649	-384.403870	181.362946	-237.330795
4439.441977	-382.007599	180.603149	-232.713623
4439.445309	-379.786682	178.849808	-229.791351
4439.448649	-376.572174	177.856232	-226.226181
4439.452006	-375.578613	175.810638	-222.719467
4439.455310	-372.773254	175.576859	-220.206314
4439.458655	-370.201660	174.524841	-216.524261
4439.461981	-368.156067	173.122147	-214.128006
4439.465312	-366.928711	172.654587	-211.497955
4439.468639	-365.526001	171.719467	-207.932785
4439.471975	-362.895996	171.485687	-205.419647
4439.475313	-361.317932	170.609009	-202.906494
4439.478641	-358.980133	170.199890	-200.919357
4439.481974	-356.993011	169.556992	-198.347748
4439.485313	-355.590332	169.206314	-196.419052
4439.488643	-353.018707	168.621857	-193.555237
4439.491979	-351.031555	167.745178	-191.743423
4439.495341	-349.102875	167.219177	-188.587372
4439.498637	-347.115723	166.459396	-186.950912
4439.501978	-344.777924	166.284042	-184.087097
4439.505307	-343.609009	165.933380	-181.866165
4439.508638	-341.388092	165.641144	-179.937469
4439.511969	-340.219177	165.407364	-177.599655
4439.515308	-338.056702	165.056702	-175.904724
4439.518640	-336.361786	164.413788	-172.573349
4439.521971	-334.433105	164.004684	-170.761536
4439.525305	-332.855072	163.770905	-168.949738
4439.528667	-331.510834	163.770905	-167.722382
4439.531968	-330.049683	162.660446	-165.735245
4439.535307	-328.647003	162.543549	-163.748108
4439.538671	-327.185883	162.251312	-162.403870
4439.541973	-325.724731	161.666870	-160.124481
4439.545309	-324.672729	160.381058	-158.488022
4439.548635	-324.029816	160.497955	-157.319107
4439.551966	-322.510254	160.322632	-156.267105
4439.555305	-322.334900	159.562836	-154.513733
4439.558640	-321.107544	159.036819	-154.046173
4439.561969	-320.581543	158.218597	-152.877258
4439.565303	-320.055542	157.984818	-151.942139
4439.568631	-319.061981	158.393936	-152.175919
4439.571968	-318.769745	158.043243	-151.825241
4439.575298	-318.769745	157.400360	-150.773239
4439.578630	-318.535950	157.166580	-151.591461
4439.581989	-318.535950	156.640564	-151.065460
4439.585300	-317.834625	157.458801	-150.831680
4439.588634	-317.893066	157.108124	-150.714783
4439.591963	-317.425476	156.523682	-150.890121
4439.595299	-318.126831	156.991241	-151.416138
4439.598632	-318.360626	156.991241	-152.000580
4439.601964	-318.769745	156.991241	-152.409698
4439.605293	-318.009949	157.634140	-152.234375
4439.608626	-318.828186	157.225021	-152.760376
4439.611962	-319.880188	157.517258	-153.929276
4439.615291	-319.471069	157.458801	-154.513733
4439.618629	-319.704865	158.569260	-154.689072
4439.621958	-320.289337	158.803040	-155.098190
4439.625308	-320.230865	159.153717	-155.974869
4439.628625	-320.289337	159.796616	-155.974869
4439.631963	-319.938629	160.030396	-156.208649
4439.635299	-320.230865	160.907074	-157.026886
4439.638628	-320.289337	161.082413	-157.494461
4439.641955	-321.341339	161.374634	-158.371124
4439.645296	-321.458221	162.543549	-159.423141
4439.648624	-321.516663	163.361786	-159.423141
4439.651962	-322.451782	164.296906	-160.066055
4439.656702	-323.445374	164.822922	-160.884277
4439.659615	-323.503815	165.173584	-160.884277
4439.663229	-324.146698	165.933380	-161.994736
4439.666609	-324.672729	167.102280	-162.286972
4439.669994	-326.016937	167.102280	-163.338989
4439.673323	-326.075409	167.920517	-164.332550
4439.676222	-326.659882	168.212738	-165.735245
4439.679577	-327.828766	168.563416	-167.021042
4439.682899	-328.997681	169.323196	-168.540619
4439.686181	-330.341919	169.440094	-169.651077
4439.689476	-330.984802	170.199890	-170.819992
4439.692810	-332.621277	171.310349	-172.573349
4439.696162	-333.731750	171.953247	-174.560486
4439.699529	-336.011139	172.537704	-177.248978
4439.702901	-337.355347	173.706619	-179.469894
4439.706218	-338.991821	173.765060	-181.281708
4439.709511	-340.628296	174.933960	-184.788437
4439.712816	-342.323212	175.109299	-187.301590
4439.716138	-344.661011	175.693741	-189.873184
4439.719498	-347.057281	176.453537	-192.853882
4439.722836	-348.869080	178.090012	-195.951492
4439.726159	-350.856232	179.083588	-198.289307
4439.729595	-353.486267	180.369370	-201.912918
4439.732906	-355.473419	180.895386	-204.718292
4439.736145	-356.817657	182.648758	-208.400360
4439.739467	-359.681488	183.992996	-212.549988
4439.742837	-361.668640	185.687897	-216.115143
