time (s)	magX	magY	magZ
7908.351462	280.835175	-298.526581	379.693146
7908.354799	276.276428	-296.714783	364.029816
7908.358125	272.126831	-294.669189	349.418488
7908.361458	267.918762	-292.623596	336.209808
7908.364817	262.541779	-290.285797	322.416718
7908.368125	258.684387	-287.772644	308.156036
7908.371504	253.482773	-285.025726	295.298065
7908.374795	249.742264	-282.512573	283.375214
7908.378128	245.709534	-278.713623	270.751007
7908.381459	241.735245	-275.616028	259.938629
7908.384798	237.760971	-272.401520	249.009338
7908.388126	233.143784	-269.011688	238.080078
7908.391463	228.351257	-266.264740	228.495026
7908.394796	224.493881	-262.232056	218.734650
7908.398122	220.753357	-258.666870	209.441833
7908.401459	215.376389	-256.329071	199.623016
7908.404795	211.460556	-252.822327	191.089996
7908.408161	208.070724	-249.023392	183.667450
7908.411460	204.564011	-245.925781	175.718872
7908.414789	200.472824	-242.009949	167.828766
7908.418125	196.966110	-238.035645	159.997101
7908.421458	192.641144	-234.879608	152.925201
7908.424788	189.426651	-231.606674	146.613098
7908.428117	185.803055	-227.398605	140.125671
7908.431451	182.296326	-224.534775	133.988892
7908.434811	179.315613	-220.735840	127.676796
7908.438122	175.224426	-217.229095	122.066032
7908.441457	172.828186	-214.365295	117.215080
7908.444788	168.912338	-210.975449	111.604332
7908.448117	166.340744	-207.351837	106.344246
7908.451491	163.184692	-204.195801	101.493279
7908.454790	160.145538	-201.448853	96.466972
7908.458120	156.638809	-198.351257	92.668022
7908.461458	154.359436	-195.604324	88.576866
7908.464789	151.086502	-192.623611	84.777916
7908.468115	148.398010	-189.876678	80.920509
7908.471457	146.060196	-187.071304	77.063133
7908.474788	143.021042	-184.499695	73.556396
7908.478121	140.858566	-182.044998	70.225021
7908.481451	138.170074	-179.940964	67.185860
7908.484782	135.598480	-176.901810	63.854477
7908.488115	133.845123	-174.271774	60.932205
7908.491455	130.104614	-171.700180	57.834595
7908.494782	128.760376	-170.414368	56.022797
7908.498120	126.481010	-167.375214	52.983635
7908.501490	124.318527	-165.329636	51.054939
7908.504814	122.682060	-163.284042	48.950905
7908.508120	119.818237	-161.296906	46.320862
7908.511443	119.058441	-159.601990	45.210403
7908.514786	116.837524	-158.257736	42.171249
7908.518110	114.791931	-156.445938	40.593216
7908.521443	113.389244	-153.932785	39.015198
7908.524779	111.635880	-152.004089	37.144943
7908.528108	110.116302	-150.367630	35.800705
7908.531449	108.362946	-148.497360	34.105782
7908.534777	107.135597	-146.744003	32.761543
7908.538147	105.031563	-144.815308	30.949738
7908.541448	103.804207	-143.471069	30.014610
7908.544782	102.869080	-141.600815	27.267677
7908.548111	101.524834	-139.672119	26.449440
7908.551443	100.297485	-138.678543	25.105202
7908.554778	98.544128	-137.451202	24.579193
7908.558111	96.849205	-135.464066	23.118065
7908.561446	96.498535	-134.178253	21.949158
7908.564773	95.388077	-133.243134	20.838692
7908.568108	93.985382	-130.905319	19.143776
7908.571445	93.167152	-129.736404	18.500877
7908.574835	91.998245	-128.684402	18.150208
7908.578119	91.355347	-127.340149	17.215080
7908.581476	90.186440	-126.755699	15.753944
7908.584773	89.134422	-125.469894	15.227936
7908.588106	88.140854	-124.008774	14.935707
7908.591438	87.381065	-122.781418	13.007019
7908.594778	86.270599	-121.612511	12.130333
7908.598111	85.978378	-121.086502	11.253654
7908.601440	85.101692	-119.683807	10.318531
7908.604777	83.699005	-118.982468	9.850960
7908.608108	83.348335	-117.872009	10.201641
7908.611440	82.179428	-117.170662	9.441849
7908.614769	81.536522	-116.878433	8.974285
7908.618102	80.367615	-116.235535	7.630039
7908.621437	80.075394	-115.651077	6.928696
7908.624793	79.724724	-114.306839	7.045586
7908.628108	79.607834	-114.014610	6.928696
7908.631435	78.263588	-113.430161	7.162476
7908.634773	77.854469	-113.313263	6.227352
7908.638101	77.328461	-112.553474	6.110458
7908.641439	76.510231	-112.027466	4.181767
7908.644770	76.802452	-111.969017	4.240211
7908.648096	75.633545	-111.559906	4.298656
7908.651463	75.224434	-111.443016	3.947987
7908.654766	74.698418	-110.157219	4.415550
7908.658100	74.639977	-110.215660	3.421974
7908.661428	73.763298	-110.040329	3.188194
7908.664765	74.055527	-109.631210	2.895969
7908.668126	73.529510	-109.046753	3.129753
7908.671431	74.289307	-108.520752	2.486851
7908.674764	73.880188	-109.046753	2.545300
7908.678101	72.945061	-108.053185	3.188194
7908.681435	72.185272	-108.345413	2.662189
7908.684763	72.594391	-107.936295	2.486851
7908.688100	71.834602	-107.351845	3.071304
7908.691432	72.185272	-107.702515	2.369957
7908.694768	71.659264	-107.760956	2.662189
7908.698097	71.893044	-107.468735	2.194626
7908.701429	71.016365	-107.877846	1.317944
7908.704763	71.074806	-108.403854	1.551723
7908.708096	70.724136	-107.234955	1.259499
7908.711450	70.782585	-107.118057	1.902397
7908.714757	71.133255	-107.176506	2.194626
7908.718096	71.133255	-107.059608	1.668613
7908.721529	70.431915	-107.468735	1.785507
7908.724759	71.308594	-107.702515	1.551723
7908.728095	71.191696	-107.760956	1.668613
7908.731430	71.308594	-107.760956	1.902397
7908.734761	71.367035	-107.936295	1.668613
7908.738089	71.250145	-107.760956	2.486851
7908.741422	71.133255	-108.286964	1.610172
7908.744756	71.133255	-109.046753	2.077736
7908.748088	71.250145	-109.514313	2.779079
7908.751425	71.191696	-110.215660	2.486851
7908.754774	71.893044	-110.274109	2.837521
7908.758086	71.367035	-110.741669	3.305084
7908.761423	72.068382	-111.092346	3.538864
7908.764756	72.360603	-111.443016	3.480423
7908.768087	72.535942	-111.501457	4.064877
7908.771448	72.769730	-112.202805	3.363533
7908.774753	72.535942	-112.553474	3.947987
7908.778090	72.711281	-113.371712	4.824661
7908.781424	73.821739	-114.189941	5.000000
7908.784758	73.880188	-115.125069	5.000000
7908.788086	74.230858	-115.592628	6.519581
7908.791424	74.347748	-116.293976	5.701347
7908.794762	74.756866	-116.936882	6.461132
7908.799351	75.224434	-118.982468	7.746929
7908.802745	75.341324	-119.859146	8.156052
7908.806130	76.101105	-121.028053	8.915836
7908.809478	76.919350	-122.196960	9.324955
7908.812375	77.503799	-122.781418	9.850960
7908.815705	77.796021	-123.658096	10.552315
7908.819378	78.672707	-124.534767	11.078316
7908.822736	79.198715	-125.879021	11.662773
7908.826047	79.374054	-127.164810	12.247223
7908.828984	79.958504	-127.632378	13.007019
7908.832310	80.893631	-128.567505	13.123909
7908.835711	81.244301	-130.145523	13.942139
7908.839039	82.062538	-131.314438	15.111046
7908.842262	82.822319	-133.184692	16.455284
7908.845596	83.932785	-134.353607	17.098190
7908.848937	84.341904	-135.931625	17.507301
7908.852353	84.809464	-137.626541	18.734657
7908.855626	86.270599	-138.327881	19.436005
7908.859034	87.030396	-139.905899	19.786674
7908.862349	87.322617	-141.133255	21.189362
7908.865667	88.783752	-143.003510	22.358269
7908.868930	89.894211	-144.113968	23.468735
7908.872283	90.011101	-145.867325	24.462303
7908.875588	91.238457	-147.912918	25.572769
7908.878975	92.056694	-149.549377	27.092346
7908.882293	92.991814	-152.179428	27.735237
7908.885726	94.686737	-153.289886	29.605499
7908.889029	95.037407	-155.393921	30.949738
7908.892266	96.147865	-157.497955	32.644653
7908.895595	96.907654	-159.426651	34.339569
7908.898930	98.310349	-162.407364	35.800705
7908.902336	99.420807	-164.803619	38.313858
7908.905617	100.180595	-166.732315	39.716545
7908.909014	101.407944	-169.245468	42.229691
7908.912315	102.752190	-171.817062	44.041496
7908.915262	103.979546	-174.154877	46.437759
7908.918931	105.791351	-176.960266	48.483345
7908.922258	106.609581	-179.473404	50.353592
7908.925614	107.720047	-182.161880	53.158966
7908.928967	109.590294	-185.142609	55.730568
7908.931832	110.876091	-187.831085	58.302162
7908.935159	112.571007	-190.870239	61.224434
7908.938527	113.915253	-194.552307	64.380470
7908.941876	115.317940	-197.299240	68.530098
7908.945211	117.421974	-200.455292	71.978371
7908.948502	119.292221	-203.552887	74.725319
7908.951824	119.526001	-207.293396	78.933372
7908.955159	122.214493	-210.566345	83.024544
7908.958504	124.552307	-213.663925	85.946815
7908.961823	126.364113	-217.404434	91.031563
7908.965159	128.585037	-220.735840	94.304497
7908.968498	129.929291	-224.593231	99.973701
7908.971848	132.383987	-227.983047	104.123329
7908.975200	134.020462	-231.840439	108.974281
7908.978522	136.241379	-235.405609	114.000587
7908.981959	138.111633	-240.022797	119.669792
7908.985160	139.981888	-243.704834	124.754524
7908.988515	142.085922	-247.679138	130.657501
7908.991831	144.073059	-251.536530	136.151367
7908.995157	146.293976	-255.393936	142.755707
7908.998492	148.164230	-259.601990	149.593811
7909.001831	149.859146	-263.810059	156.373474
7909.005157	151.963181	-267.901245	162.860901
7909.008516	153.833435	-272.284637	171.160126
7909.011850	156.288147	-276.492676	178.524261
7909.015178	158.450623	-281.226776	186.472839
7909.018538	160.379318	-285.668610	195.356506
7909.021824	162.308014	-290.052002	203.889526
7909.025170	164.762726	-295.136749	213.649902
7909.028488	166.399185	-299.812378	222.299805
7909.031401	167.977203	-304.721802	231.651062
7909.034730	169.847458	-309.046753	241.703674
7909.038062	171.893051	-313.956177	253.626526
7909.041393	173.237289	-319.216248	264.555817
7909.044726	175.049103	-323.891876	276.595551
7909.048063	176.977798	-328.625946	289.161285
7909.051393	177.796036	-333.184692	302.136169
7909.054726	179.315613	-337.743408	314.994141
7909.058063	181.302750	-343.354187	329.137909
7909.061394	182.413223	-348.029785	343.690826
7909.064731	183.582123	-352.471649	359.120392
7909.068063	184.049683	-356.679718	374.783722
7909.071389	184.867920	-360.887787	390.154877
7909.074763	185.861481	-364.628296	406.753387
7909.078059	185.861481	-369.479248	423.994751
7909.081386	187.264175	-374.213348	442.054352
7909.084719	186.679733	-377.310944	459.821747
7909.088062	186.270615	-380.759216	478.582672
7909.091392	185.978378	-383.213898	496.993011
7909.094721	185.510818	-386.662201	516.104675
7909.098085	185.335480	-389.467560	536.560486
7909.101384	184.283463	-391.337830	558.243774
7909.104717	183.056107	-393.032745	579.050293
7909.108061	181.594971	-394.493866	599.856812
7909.111389	180.075409	-395.721222	620.195801
7909.114724	177.270020	-395.545898	642.463501
7909.118050	174.406204	-395.838104	664.731201
7909.121385	171.893051	-395.428986	686.472839
7909.124721	168.853897	-394.493866	708.448303
7909.128078	165.580948	-392.857391	730.716003
7909.131389	160.554657	-390.052002	752.574524
7909.134721	156.521927	-387.772644	774.199341
7909.138048	150.852722	-384.324371	796.525452
7909.141434	146.060196	-379.707184	818.325562
7909.144720	139.163651	-375.966675	839.658142
7909.148047	133.319122	-369.888367	860.581543
7909.151387	126.539444	-363.459381	881.154297
7909.154719	118.999992	-356.855042	900.675049
7909.158050	111.460548	-349.432495	921.014099
7909.161383	102.226181	-340.899475	939.950317
7909.164711	93.693161	-332.191101	957.717773
7909.168048	84.166565	-322.372284	974.199402
7909.171400	74.639977	-311.267670	989.979553
7909.174718	63.944481	-299.578613	1005.876648
7909.178045	53.073639	-287.889557	1019.786682
7909.181384	42.436584	-274.797760	1033.112183
7909.184715	31.156633	-261.822906	1043.690796
7909.188045	18.941555	-247.971359	1055.262939
7909.191375	5.732905	-232.424896	1063.679077
7909.194712	-6.365282	-217.287567	1071.335449
7909.198042	-18.872587	-200.805954	1076.946167
7909.201379	-31.613676	-184.382812	1081.388062
7909.204710	-44.588547	-166.849197	1084.836304
7909.208122	-57.563416	-148.848038	1085.596069
7909.211380	-69.895386	-129.444183	1085.011719
7909.214727	-82.870255	-111.033897	1083.901245
7909.218045	-95.436005	-93.149620	1079.167114
7909.221375	-108.118645	-72.752197	1075.484985
7909.224709	-120.509071	-54.049679	1069.932739
7909.228048	-132.899475	-34.528931	1061.691895
7909.231377	-143.828751	-14.657510	1053.334229
7909.234709	-154.933365	5.155465	1043.281616
7909.238044	-166.213318	24.559322	1032.118652
7909.241374	-176.791916	43.320286	1019.611267
7909.244711	-186.961411	62.139687	1006.344299
7909.248045	-195.962006	80.023964	992.609680
7909.251397	-205.137924	97.440674	976.069641
7909.254710	-213.437149	115.149620	960.756897
7909.258048	-221.619522	131.689667	944.509094
7909.261373	-228.632950	148.112808	927.735291
7909.264707	-235.471069	163.659271	909.091248
7909.268041	-241.724716	178.562836	889.395081
7909.271377	-247.978348	193.349503	870.867981
7909.274702	-253.589127	207.376389	852.106995
7909.278041	-258.440125	219.123917	832.586243
7909.281367	-262.765076	231.163651	812.422607
7909.284698	-266.973145	242.151382	792.258972
7909.288040	-270.713623	252.437775	771.101746
7909.291375	-273.752777	262.607239	751.230286
7909.294725	-276.382812	271.198700	731.008179
7909.298034	-278.311523	279.614868	710.143250
7909.301370	-280.123322	287.446533	690.388672
7909.304700	-281.467590	294.109314	670.108154
7909.308039	-283.279358	300.713623	650.178284
7909.311366	-283.279358	305.739929	631.183533
7909.314698	-283.863831	310.064880	611.838135
7909.318036	-284.389862	314.623627	591.791321
7909.321368	-283.746918	318.247223	573.322632
7909.324703	-282.987152	321.111053	554.327942
7909.328037	-282.694946	323.624207	535.742310
7909.331361	-281.000000	325.143768	516.338379
7909.334701	-279.947998	326.371124	498.921661
7909.338031	-278.954437	327.364716	481.095856
7909.341384	-276.382812	327.306244	464.146698
7909.344701	-273.928101	327.773804	447.898895
7909.348033	-271.940979	327.656921	431.475769
7909.351365	-269.544708	326.195801	414.175903
7909.354693	-266.680908	326.137360	399.506104
7909.358027	-264.109283	324.208649	383.375183
7909.361364	-261.245483	322.805969	368.880768
7909.364696	-257.563416	320.292816	355.204559
7909.368025	-254.290451	318.364136	341.820587
7909.371358	-251.485092	316.260071	329.137909
7909.374694	-248.504379	313.337799	315.578613
7909.378023	-244.705429	310.824646	302.662170
7909.381382	-241.432480	307.493286	291.382202
7909.384697	-236.873749	304.103455	279.284058
7909.388031	-233.659256	301.005859	267.828735
7909.391361	-230.035645	297.615997	257.600800
7909.394692	-226.704269	294.284637	247.197540
7909.398024	-222.905304	290.661041	237.554047
7909.401359	-219.164810	287.504974	227.969025
7909.404696	-215.599640	283.413788	220.371124
7909.408024	-212.034470	280.082428	210.727631
7909.411366	-208.352432	276.283447	201.785492
7909.414688	-204.670364	272.016968	194.070740
7909.418019	-201.222092	268.568665	186.180603
7909.421359	-198.124481	264.477509	178.933350
7909.424693	-194.442413	261.029236	171.452362
7909.428022	-191.169479	257.580963	164.263580
7909.431360	-187.662766	253.840454	158.009949
7909.434689	-184.448273	250.158386	151.873169
7909.438020	-181.350662	246.067230	145.210419
7909.441374	-178.194626	242.677383	139.774994
7909.444688	-175.447678	238.878448	134.105774
7909.448019	-171.882523	234.553482	127.910576
7909.451352	-169.194031	231.163651	123.234947
7909.454690	-166.037979	227.715378	117.682640
7909.458019	-162.648163	224.442444	113.123894
7909.461356	-160.427231	220.935699	108.448280
7909.464689	-157.271179	217.604324	104.181755
7909.468018	-154.524246	214.214493	98.746346
7909.471352	-151.894211	210.649323	94.888954
7909.474688	-149.205719	207.317947	91.148460
7909.478067	-147.218582	203.869659	86.823494
7909.481360	-144.880768	201.064285	83.141441
7909.484718	-142.893631	198.025131	79.284050
7909.488016	-140.555801	195.044434	77.004677
7909.491348	-137.750427	191.187027	73.205727
7909.494684	-135.354172	188.849213	70.341904
7909.498039	-132.665680	186.043839	66.952080
7909.501351	-131.496780	183.355347	63.211571
7909.504683	-129.334305	180.842194	60.581535
7909.508019	-127.113396	177.861481	57.600815
7909.511348	-124.950905	174.880768	54.970772
7909.514680	-122.613091	172.426071	52.457626
7909.518016	-121.268852	170.438919	50.645821
7909.521346	-119.340157	167.867325	48.424896
7909.524680	-118.229683	165.704849	46.145531
7909.528014	-115.950325	163.308594	44.450615
7909.531348	-114.021622	161.087677	42.638809
7909.534680	-112.268272	159.217422	40.417885
7909.538007	-110.982468	157.230270	39.015198
7909.542754	-107.125084	153.781998	35.040909
7909.545683	-105.780830	151.853302	33.462891
7909.549333	-104.027473	149.457047	31.475746
7909.552659	-103.092346	147.879013	31.008186
7909.556037	-101.806549	146.534775	28.787262
7909.558985	-100.286972	144.722961	27.969025
7909.562313	-97.949158	142.911163	27.443016
7909.565609	-97.832260	141.391586	26.040329
7909.569287	-95.962013	139.813553	24.754532
7909.572235	-95.143768	138.352417	23.527176
7909.575528	-93.507301	137.241959	22.592049
7909.578906	-93.156639	135.605499	22.299828
7909.582213	-91.812393	134.202805	20.663361
7909.585710	-90.585045	133.150803	20.254234
7909.588987	-89.942146	131.631210	18.793098
7909.592267	-88.948570	130.988312	17.799530
7909.595516	-87.838112	129.527176	16.455284
7909.598864	-86.376968	128.066040	16.279953
7909.602187	-85.558739	127.481598	15.052597
7909.605548	-85.324959	126.137344	14.585037
7909.608889	-84.214500	124.734650	13.825249
7909.612277	-83.805374	123.331970	12.948570
7909.615673	-83.045593	122.338394	12.422562
7909.618852	-82.402687	121.637054	11.662773
7909.622182	-81.759796	120.292816	10.026302
7909.625518	-80.649330	119.474579	10.084747
7909.628915	-80.006432	119.123901	9.617180
7909.632212	-80.181763	118.364105	9.149616
7909.635598	-78.253075	117.838120	7.571598
7909.638930	-78.136177	116.493866	7.863819
7909.642253	-77.259499	115.909409	7.630039
7909.645523	-77.084160	115.032738	7.454704
7909.648861	-76.499710	114.798958	6.870255
7909.652193	-75.506142	114.331383	6.519581
7909.655537	-75.739922	113.513153	6.519581
7909.658486	-75.506142	112.519577	5.233784
7909.661789	-75.798363	112.110466	5.350674
7909.665141	-74.337234	111.876678	4.941555
7909.668439	-73.285217	110.883110	4.357101
7909.671784	-73.402107	110.941559	3.714203
7909.675088	-72.583870	111.233788	3.597313
7909.678425	-73.518997	110.766220	3.305084
7909.681758	-72.408531	110.064880	3.831097
7909.685094	-72.116310	109.889534	3.363533
7909.688419	-71.298073	109.889534	3.071304
7909.691751	-71.707191	109.246643	3.363533
7909.695108	-71.181183	108.954407	3.655758
7909.698448	-71.122734	109.246643	3.597313
7909.701801	-71.356514	109.129753	3.538864
7909.705100	-70.713623	109.012856	3.012859
7909.708416	-70.246056	109.363533	3.363533
7909.711754	-70.655174	109.129753	3.305084
7909.715101	-70.187614	109.129753	3.421974
7909.718415	-70.947403	109.480423	3.246643
7909.721757	-70.187614	108.837524	2.954411
7909.725088	-70.304504	108.954407	3.597313
7909.728410	-70.129166	109.714203	3.655758
7909.731796	-70.479843	109.597321	3.772648
7909.735110	-70.772064	109.889534	2.486851
7909.738444	-71.005844	109.772652	2.720631
7909.741753	-70.830513	109.655754	2.545300
7909.745109	-70.947403	109.655754	3.012859
7909.748427	-70.888954	110.473991	3.188194
7909.751751	-70.772064	110.941559	3.538864
7909.755088	-70.830513	111.175339	3.538864
7909.758415	-71.298073	111.701347	3.597313
7909.761751	-70.888954	111.759789	3.772648
7909.764651	-70.888954	112.344246	4.298656
7909.767992	-71.765640	112.402695	4.123318
7909.771324	-71.531853	113.279373	4.415550
7909.774654	-71.707191	113.571602	4.064877
7909.777994	-71.882530	113.980713	5.116894
7909.781338	-72.876099	114.565170	4.649330
7909.784658	-72.876099	114.272942	5.175335
7909.787997	-73.518997	115.266510	6.344242
7909.791321	-73.518997	116.669205	6.753361
7909.794650	-73.635887	116.552307	7.279366
7909.797986	-74.045006	117.312103	7.630039
7909.801319	-74.395676	118.188782	7.805378
