time (s)	magX	magY	magZ
5999.852586	-297.378723	321.690247	-230.609589
5999.855921	-300.885468	325.080078	-238.616608
5999.859258	-304.859741	328.878998	-247.324966
5999.862587	-308.600250	333.262390	-255.624191
5999.865921	-312.632965	336.827576	-262.871429
5999.869254	-316.548828	340.626526	-271.521332
5999.872593	-320.756897	344.483917	-280.580353
5999.875914	-325.198730	348.165985	-288.821167
5999.879260	-329.173004	351.848022	-297.120392
5999.882617	-332.679718	355.530090	-305.945648
5999.885924	-336.244904	359.971924	-313.835785
5999.889258	-339.693176	363.186432	-323.654602
5999.892590	-343.492126	366.751617	-332.070740
5999.895918	-347.817078	370.959656	-341.246643
5999.899248	-351.616028	374.933929	-351.182373
5999.902587	-354.304504	378.849762	-361.001190
5999.905917	-357.869659	382.298065	-370.878418
5999.909249	-361.376404	386.330811	-381.340179
5999.912642	-363.889557	390.655762	-392.795441
5999.917194	-369.792542	398.312103	-416.173584
5999.920564	-373.357697	402.403259	-428.505554
5999.923956	-375.812408	407.137360	-441.129761
5999.927311	-378.500885	411.111603	-454.630646
5999.930636	-381.072479	414.969025	-468.423737
5999.933537	-383.118073	419.586182	-483.561096
5999.937188	-385.981903	423.092896	-499.107544
5999.940555	-387.793701	426.950317	-515.238464
5999.943886	-389.956177	429.638824	-533.356506
5999.947262	-392.586212	433.262390	-551.123901
5999.950196	-394.514923	436.126251	-569.592651
5999.953507	-395.917572	438.054962	-589.054932
5999.956866	-397.261841	440.860321	-608.926331
5999.960092	-399.073669	442.087646	-629.732849
5999.963442	-399.599670	443.139648	-650.481018
5999.966762	-400.184143	443.957916	-672.398010
5999.970147	-401.002350	444.133240	-694.957886
5999.973454	-401.411469	444.074768	-717.751587
5999.976845	-400.943909	442.613647	-740.369934
5999.980177	-400.534790	440.509613	-762.812988
5999.983428	-399.658081	438.230286	-785.372864
5999.986761	-398.255432	435.366455	-808.984741
5999.990099	-396.560516	431.625946	-833.239624
5999.993472	-394.982452	427.242523	-856.150208
5999.996789	-392.177094	423.268280	-879.937439
6000.000171	-389.605499	417.540588	-903.783081
6000.003541	-385.631226	412.280518	-926.752136
6000.006840	-382.592072	406.494446	-951.299255
6000.010095	-378.267090	399.247223	-973.800720
6000.013457	-373.357697	392.584412	-996.360535
6000.016750	-368.740509	385.278748	-1018.745178
6000.020115	-362.779083	376.687317	-1041.831055
6000.023461	-355.940979	369.206299	-1063.338989
6000.026840	-348.752228	361.082397	-1085.840454
6000.030198	-341.271179	351.848022	-1107.757446
6000.033424	-333.322632	343.139679	-1130.200562
6000.036765	-323.912933	333.028625	-1151.825317
6000.040083	-314.853912	323.326691	-1173.099365
6000.043492	-304.625977	312.163635	-1193.906006
6000.046771	-293.579803	301.409698	-1215.998291
6000.050164	-281.014038	290.480408	-1236.161987
6000.053026	-268.331390	277.973114	-1255.916382
6000.056446	-255.531845	265.348907	-1277.541260
6000.059666	-241.271164	251.906479	-1297.529541
6000.062997	-226.484497	237.938049	-1317.284058
6000.066333	-210.938034	224.144958	-1336.512573
6000.069662	-193.930450	208.832260	-1354.981323
6000.072988	-177.215073	192.350677	-1373.800781
6000.076324	-159.097015	175.459961	-1391.685059
6000.079667	-141.037399	157.692581	-1408.400391
6000.083014	-121.984222	139.340744	-1425.232666
6000.086348	-101.995911	120.638222	-1439.376343
6000.089675	-82.358269	100.766800	-1453.403320
6000.092987	-62.194622	81.129158	-1466.611938
6000.096335	-42.030979	60.673286	-1477.658081
6000.099663	-21.575104	39.457626	-1487.184692
6000.102991	-1.411455	19.177088	-1496.360596
6000.106320	20.739334	-1.921684	-1502.497437
6000.109660	40.435417	-23.721802	-1508.692627
6000.112987	60.189945	-44.294563	-1511.498047
6000.116366	79.535362	-65.393341	-1512.842163
6000.119688	98.880775	-85.440102	-1513.251343
6000.123010	117.407959	-104.960846	-1512.783691
6000.126403	136.168915	-124.715378	-1509.452393
6000.129663	153.527176	-143.476318	-1504.367676
6000.132985	170.184097	-160.542374	-1499.925781
6000.136318	187.308594	-178.368195	-1492.737061
6000.139657	203.088837	-194.674454	-1481.983154
6000.143003	218.576859	-210.746918	-1473.216309
6000.146314	233.012863	-225.182922	-1462.637695
6000.149658	247.741089	-238.742264	-1450.773315
6000.153015	260.423706	-252.769135	-1437.155518
6000.156341	274.041473	-263.873749	-1423.420776
6000.159696	287.016357	-276.088867	-1407.757446
6000.162608	299.289856	-287.076569	-1392.035645
6000.165894	311.212738	-296.486267	-1374.560547
6000.169230	323.018707	-306.188202	-1358.254272
6000.172559	334.006439	-315.013458	-1338.850464
6000.175892	345.052612	-323.312683	-1320.206421
6000.179219	355.163635	-330.267700	-1300.451782
6000.182560	364.982452	-337.398010	-1279.002441
6000.185920	375.385742	-344.177704	-1257.669800
6000.189223	384.269440	-350.431335	-1236.746338
6000.192564	392.510223	-355.983643	-1213.368286
6000.195887	400.283447	-360.951477	-1190.165405
6000.199221	408.348907	-365.860901	-1165.618408
6000.202550	415.362335	-369.542969	-1142.240234
6000.205891	421.791351	-373.400360	-1115.296997
6000.209222	428.161896	-378.134430	-1090.340698
6000.212553	433.421967	-380.647583	-1064.858521
6000.215890	437.805328	-383.803619	-1037.739990
6000.219217	441.896545	-387.018127	-1012.199280
6000.222551	445.578613	-388.654602	-986.191040
6000.225885	448.851501	-391.109283	-960.592041
6000.229241	450.838684	-392.804199	-933.531799
6000.232555	452.475128	-394.557587	-907.172913
6000.235892	453.293396	-395.375824	-879.820496
6000.239223	453.410278	-396.544708	-854.864380
6000.242556	453.059601	-397.246063	-828.563965
6000.245885	452.533600	-397.304504	-803.783142
6000.249217	451.656921	-397.479828	-779.177612
6000.252548	449.786682	-397.304504	-755.974854
6000.255885	447.741058	-397.070740	-733.239624
6000.259220	445.870789	-395.317352	-711.907043
6000.262548	443.182343	-395.200500	-689.990051
6000.265875	440.026306	-393.330231	-669.300354
6000.269219	437.746918	-392.044434	-648.026306
6000.272571	434.298645	-390.057281	-629.732849
6000.275880	430.733459	-389.122162	-610.679687
6000.279217	427.869690	-386.959686	-592.386292
6000.282551	424.596710	-384.797211	-575.846252
6000.285878	421.206879	-382.751617	-558.312683
6000.289208	417.641724	-379.887787	-542.941528
6000.292547	414.777863	-377.257751	-527.395081
6000.295929	411.037384	-374.043274	-511.439514
6000.299217	408.115112	-371.530090	-497.061951
6000.302542	404.900635	-368.374054	-483.619537
6000.305880	402.621277	-365.101105	-470.469330
6000.309215	398.763855	-361.477509	-456.384003
6000.312547	395.958496	-358.438354	-444.110474
6000.315896	392.393311	-355.048523	-431.661591
6000.319211	389.120392	-351.658691	-419.504974
6000.322541	385.847443	-348.210419	-406.763885
6000.325876	382.749847	-344.469910	-396.185272
6000.329207	379.827576	-340.963196	-383.677979
6000.332538	376.320862	-337.047363	-372.047363
6000.335873	372.814117	-333.306854	-360.533600
6000.339208	369.132080	-329.391022	-349.253662
6000.342546	365.800690	-325.358276	-339.084167
6000.345875	361.826385	-322.085358	-327.804199
6000.349204	358.202789	-318.695526	-317.400940
6000.352535	354.286957	-314.545898	-307.406769
6000.355871	350.780212	-310.863831	-297.471069
6000.359205	347.215057	-307.473999	-287.827576
6000.362535	343.123901	-304.259521	-277.950317
6000.365870	339.149628	-300.460571	-267.956177
6000.369210	334.707764	-297.655182	-259.423157
6000.372541	330.908813	-294.499115	-250.656357
6000.375869	326.700745	-291.343079	-242.298660
6000.379205	322.434235	-287.894806	-234.057861
6000.382537	318.226166	-284.914093	-226.226181
6000.385868	314.544098	-282.167175	-218.920532
6000.389232	310.511383	-278.777344	-211.790192
6000.392542	306.069550	-276.322632	-205.244308
6000.395866	302.504364	-273.400360	-198.581543
6000.399202	299.056091	-271.237885	-192.386322
6000.402545	295.958496	-267.848053	-186.600235
6000.405868	291.633545	-266.036224	-182.333725
6000.409204	288.477478	-262.997101	-176.956757
6000.412533	284.970764	-261.419037	-170.703094
6000.415869	282.399170	-259.139679	-166.378143
6000.419224	279.769135	-256.451202	-162.754532
6000.422534	276.729950	-254.697830	-158.020447
6000.425863	274.099915	-253.002914	-154.513733
6000.429203	271.586761	-250.255997	-150.831680
6000.432531	269.658081	-248.035049	-148.026306
6000.435878	266.969604	-246.398590	-144.402695
6000.439195	264.924011	-244.177673	-141.188202
6000.442535	262.527771	-242.307434	-138.499710
6000.445866	260.540619	-240.203384	-135.343658
6000.449194	258.845703	-238.099365	-133.005844
6000.452529	256.858551	-236.112213	-130.025131
6000.455864	254.111633	-234.358841	-127.453537
6000.459196	253.585617	-232.137924	-124.940384
6000.462559	251.656921	-229.683212	-122.427231
6000.465865	250.020477	-228.105194	-120.732330
6000.469195	248.500885	-225.241379	-117.517822
6000.472523	247.273529	-223.429565	-114.829346
6000.475868	245.169479	-221.383987	-112.900642
6000.479192	243.591461	-219.922852	-110.562828
6000.482527	242.130341	-218.403275	-107.406784
6000.485862	240.727646	-216.299240	-105.127411
6000.489198	238.623611	-215.071884	-102.672707
6000.492528	237.337814	-212.967850	-100.393341
6000.495858	234.941574	-210.746918	-97.237289
6000.499189	233.012863	-209.870239	-95.542374
6000.502531	231.727066	-208.233780	-92.795441
6000.505864	229.915253	-206.597305	-91.217422
6000.509204	227.752777	-205.603729	-88.412041
6000.512523	225.999420	-204.668610	-86.249557
6000.515856	224.246063	-203.032135	-85.840446
6000.519191	222.142014	-201.746353	-81.983047
6000.522525	221.148453	-200.343658	-81.106369
6000.525857	220.213333	-199.408524	-80.229691
6000.529191	217.817062	-199.233185	-78.417885
6000.532520	217.057297	-198.473404	-77.132088
6000.535857	215.537704	-197.070709	-74.969604
6000.539189	214.544113	-196.778488	-74.969604
6000.542523	213.082993	-195.901810	-72.748688
6000.545861	211.680313	-195.200455	-73.157806
6000.549208	211.271194	-195.083572	-71.521332
6000.552517	210.686737	-193.914673	-70.878433
6000.555850	209.400940	-194.031555	-70.177094
6000.559188	209.050262	-193.505554	-69.884865
6000.562521	208.465820	-193.154877	-69.475746
6000.565847	208.056686	-192.804214	-69.300407
6000.569184	207.939804	-192.453537	-68.657509
6000.572516	207.706024	-192.453537	-68.131500
6000.575848	206.887787	-192.278198	-68.774399
6000.579184	207.413788	-192.511978	-69.241966
6000.582528	207.706024	-191.693741	-69.241966
6000.585852	207.004684	-191.284622	-68.949738
6000.589185	207.764481	-191.869080	-69.183517
6000.592545	207.589127	-191.109283	-68.891296
6000.595849	207.822906	-191.109283	-69.534195
6000.599181	207.647583	-190.466400	-69.300407
6000.602516	207.706024	-190.524826	-68.482178
6000.605859	208.173584	-189.940384	-68.482178
6000.609179	208.348923	-189.765045	-68.774399
6000.612518	207.998260	-189.531265	-68.599068
6000.615851	208.115143	-189.063690	-68.073059
6000.619179	208.348923	-188.888367	-68.014610
6000.622514	208.232040	-188.771484	-68.131500
6000.625850	208.290466	-189.063690	-67.605492
6000.629173	208.816483	-188.829910	-68.365288
6000.632511	208.582703	-188.362350	-68.131500
6000.635861	208.407364	-188.888367	-67.605492
6000.639179	208.465820	-188.596130	-67.488602
6000.642512	209.050262	-188.829910	-67.956169
6000.645842	209.400940	-188.888367	-68.131500
6000.649175	208.641144	-189.589706	-68.131500
6000.652531	208.933380	-190.407944	-67.371712
6000.655842	208.641144	-190.700180	-67.722382
6000.659178	209.050262	-191.401520	-68.715958
6000.662503	208.699600	-192.102859	-68.774399
6000.665844	208.465820	-193.154877	-69.709526
6000.669177	209.576279	-193.096420	-69.767975
6000.672513	210.160721	-194.206894	-70.235535
6000.675845	211.095840	-195.142029	-71.170662
6000.679204	211.095840	-196.252487	-71.521332
6000.682510	211.621857	-197.012268	-72.398010
6000.685836	212.323196	-198.531845	-73.625366
6000.689179	213.141434	-199.525421	-74.735825
6000.692506	213.842789	-199.934540	-76.430740
6000.695839	215.479248	-201.512573	-77.658096
6000.699171	216.355942	-202.973694	-79.236122
6000.702505	217.057297	-204.084167	-81.866165
6000.705843	218.985977	-205.311508	-83.561073
6000.709167	220.622437	-206.597305	-84.145531
6000.713874	223.369370	-208.409103	-88.470490
6000.717244	225.882523	-210.162476	-89.639389
6000.720608	227.285202	-211.272934	-92.269432
6000.723942	228.571030	-212.558731	-94.548798
6000.726826	231.201065	-213.844528	-96.945068
6000.730526	232.486862	-215.071884	-98.639977
6000.733497	233.655746	-215.773224	-99.925781
6000.736787	236.402695	-217.059021	-103.490936
6000.740108	238.039154	-218.052597	-104.893631
6000.743767	240.376984	-219.864395	-107.699005
6000.747141	241.896545	-220.507294	-109.452362
6000.750052	243.649933	-222.260666	-111.965515
6000.753366	245.753952	-223.838684	-114.537109
6000.756810	247.507294	-225.884277	-116.758034
6000.760096	249.319107	-227.520752	-119.329636
6000.763427	250.955597	-228.455887	-121.842789
6000.766710	252.533615	-229.741669	-123.946808
6000.770015	253.877838	-231.904160	-126.459961
6000.773340	255.631226	-233.306839	-129.090012
6000.776706	257.384583	-235.527756	-130.960266
6000.780043	259.079498	-237.924011	-134.876099
6000.783476	261.066620	-239.443588	-137.272354
6000.786753	262.410858	-241.606064	-140.136185
6000.790097	263.930450	-243.885452	-144.285797
6000.793334	265.976044	-245.814133	-147.149628
6000.796676	267.787842	-248.268845	-150.539444
6000.800032	269.658081	-251.015793	-153.987732
6000.803427	272.171234	-252.827576	-157.436005
6000.806759	274.275269	-255.749847	-161.819397
6000.810109	276.262390	-258.438324	-166.319702
6000.813435	278.717102	-261.068390	-171.170654
6000.816678	280.587372	-263.464661	-175.378738
6000.820005	283.042084	-266.503784	-181.866165
6000.823367	286.139679	-269.542969	-186.308014
6000.826721	289.120392	-272.757446	-192.094101
6000.830032	291.691956	-275.445953	-197.412628
6000.833439	295.374023	-277.783783	-203.549393
6000.836746	297.828735	-280.764465	-211.322632
6000.840084	301.335449	-284.271179	-217.050262
6000.843344	304.666840	-287.544128	-224.063721
6000.846300	308.407349	-290.057281	-231.194046
6000.850003	311.972534	-293.154907	-238.850388
6000.852942	315.654602	-296.018707	-246.272949
6000.856253	320.096436	-299.174744	-253.753937
6000.859582	323.836914	-301.746368	-262.812958
6000.862936	327.577423	-304.668640	-270.936890
6000.866273	331.551727	-307.766205	-279.236115
6000.869626	335.467560	-310.688477	-288.236694
6000.872924	339.324951	-313.902985	-296.652832
6000.876244	342.890106	-316.942139	-305.594971
6000.879579	346.981293	-319.981293	-314.595551
6000.882908	351.014008	-322.377563	-323.596130
6000.886248	354.579193	-325.182922	-333.356506
6000.889622	358.085907	-328.748108	-342.649323
6000.892909	362.118622	-330.969055	-352.643494
6000.896269	365.683807	-334.241974	-362.754547
6000.899608	369.307434	-337.222687	-372.047363
6000.902940	373.340118	-340.554077	-382.859741
6000.906351	376.613098	-343.710144	-393.905884
6000.909580	379.710663	-347.333740	-404.250732
6000.912905	382.399170	-350.197540	-417.050262
6000.916239	386.665680	-353.528961	-428.563995
6000.919581	389.237274	-357.094116	-440.779083
6000.922907	391.750427	-360.951477	-453.578613
6000.926248	393.912903	-365.042694	-466.845703
6000.929579	397.010529	-368.257172	-479.762115
6000.932972	399.991211	-371.997650	-493.438324
6000.936265	402.445923	-375.796631	-508.400330
6000.939605	404.666840	-379.420227	-523.946777
6000.942513	407.413788	-383.452972	-540.019226
6000.946241	410.277618	-385.732330	-556.442444
6000.949147	411.329620	-389.823517	-572.982422
6000.952487	413.842743	-392.570435	-590.574463
6000.955809	416.180573	-396.135620	-607.815857
6000.959148	418.284637	-398.882538	-626.518433
6000.962484	420.973083	-401.571045	-645.337769
6000.965810	423.194061	-403.032166	-665.968994
6000.969141	424.246033	-406.597321	-685.723511
6000.972474	425.940979	-408.350677	-705.244263
6000.975835	428.395691	-409.694916	-726.401489
6000.979140	429.973663	-410.746948	-748.435425
6000.982485	431.727051	-412.208069	-768.949707
6000.985804	433.305084	-412.675629	-790.399109
6000.989136	434.357086	-413.844543	-812.549927
6000.992477	435.701355	-413.435425	-834.174744
6000.995807	435.993561	-413.493866	-856.793091
6000.999145	436.753357	-412.266510	-878.768494
6001.002471	436.811798	-411.272949	-901.503845
6001.005847	436.928680	-409.870270	-923.829895
6001.009142	436.519562	-408.409149	-946.565125
6001.012471	435.292206	-406.831085	-968.423706
6001.015813	433.772644	-404.960846	-990.165405
6001.019161	432.486847	-402.973724	-1012.725342
6001.022474	430.616577	-400.285217	-1033.824097
6001.025805	426.642303	-397.888977	-1055.741089
6001.029138	424.888916	-395.142029	-1077.891968
6001.032470	420.739349	-392.570435	-1098.581543
6001.035807	416.531250	-389.297516	-1120.089478
6001.039138	412.556976	-385.790771	-1141.948120
6001.042471	407.822906	-382.108734	-1163.981934
6001.045803	401.686157	-378.835754	-1183.327271
6001.049135	395.198700	-374.686157	-1204.601440
6001.052472	388.594391	-370.185883	-1224.881958
6001.055807	380.938019	-365.802460	-1244.227295
6001.059143	372.346558	-361.068390	-1263.222168
6001.062478	363.638214	-356.217438	-1283.035156
6001.065799	353.994720	-350.840454	-1302.438965
6001.069130	344.818817	-344.762115	-1320.790771
6001.072550	334.590851	-338.040924	-1340.311523
6001.075805	323.369354	-330.501465	-1356.793091
6001.079132	312.323181	-323.429565	-1373.625366
6001.082470	300.225006	-314.370544	-1390.633057
6001.085797	288.594391	-305.662201	-1405.770386
6001.089138	275.502625	-296.895416	-1421.375244
6001.092502	263.170654	-286.492126	-1435.635864
6001.095802	250.546463	-275.679718	-1448.844604
6001.099133	237.220917	-263.990662	-1461.176514
6001.102465	223.603165	-252.652237	-1472.339600
6001.105817	209.459381	-240.378723	-1482.742920
6001.109130	195.257172	-227.520752	-1492.503296
6001.112464	180.645828	-213.201630	-1499.516724
6001.115794	166.151367	-198.765625	-1505.536621
6001.119132	151.949158	-183.803619	-1512.023926
6001.122460	137.337814	-168.666275	-1515.881348
6001.125800	122.668030	-152.593796	-1519.271240
6001.129129	107.822914	-136.170654	-1520.907715
6001.132501	92.977791	-119.572182	-1522.251953
6001.135817	78.424904	-103.324379	-1521.959717
6001.139133	63.170658	-87.018120	-1520.557007
6001.142456	48.150204	-70.419640	-1517.693115
6001.145795	33.597313	-53.996490	-1514.128052
6001.149142	18.576855	-37.865578	-1509.686157
6001.152460	3.030392	-21.617767	-1504.659912
6001.155798	-11.639392	-4.317944	-1498.990601
6001.159125	-26.250729	11.228519	-1492.561646
6001.162460	-41.212738	26.307421	-1484.203979
6001.165790	-55.473408	41.853882	-1476.781494
6001.169124	-70.610756	57.049675	-1467.663940
6001.172455	-84.579193	70.784332	-1458.195801
6001.175789	-99.248978	84.986557	-1448.786133
6001.179121	-114.094086	98.779655	-1436.980225
6001.182455	-128.588547	112.455864	-1425.875488
6001.185787	-142.907654	126.073631	-1414.011108
6001.189124	-156.700745	138.697845	-1402.263672
6001.192462	-170.786087	150.854477	-1389.113403
6001.195785	-185.105209	163.946228	-1374.911255
6001.199133	-198.021606	175.284637	-1360.241455
6001.202456	-211.054932	187.265945	-1346.915894
6001.205788	-223.912918	199.071884	-1331.018799
6001.209126	-235.017517	210.527176	-1314.887817
6001.212451	-247.817062	221.514908	-1298.815430
6001.215791	-259.272369	233.028641	-1282.918213
6001.219124	-270.435425	244.133255	-1265.910645
6001.222450	-281.306274	254.887192	-1249.896606
6001.225786	-291.592651	265.699585	-1232.713623
6001.229120	-301.762115	276.102844	-1214.537231
6001.232454	-310.879608	286.798370	-1195.776245
6001.235809	-319.763306	296.441833	-1177.365845
