time (s)	magX	magY	magZ
7408.552358	197.141434	-313.313263	223.527161
7408.555632	195.154312	-309.046753	216.747498
7408.558966	192.816498	-305.598480	210.143188
7408.562329	190.887787	-301.624207	202.837524
7408.565678	188.491531	-298.292786	196.233215
7408.568560	186.095276	-294.844543	191.265350
7408.571892	183.932785	-291.279358	185.362366
7408.575227	181.653427	-287.655762	179.810059
7408.578559	179.783173	-283.915253	174.316193
7408.581859	178.497375	-281.226776	169.173004
7408.585204	175.633560	-277.544708	163.679138
7408.588548	174.230865	-274.037964	159.003510
7408.591868	172.769730	-270.998840	154.444763
7408.595230	169.672134	-267.609009	149.184692
7408.598545	168.912338	-264.803619	144.918182
7408.601870	166.866745	-262.173584	140.768555
7408.605224	164.353607	-258.725311	136.151367
7408.608566	162.600235	-254.634140	132.177094
7408.611886	160.963776	-252.763885	128.202789
7408.615207	158.976639	-249.724716	123.410286
7408.618541	156.931046	-246.977783	119.611336
7408.621868	155.177689	-243.880203	116.221504
7408.625194	153.482773	-241.425491	112.422554
7408.628534	151.612518	-238.678543	109.558739
7408.631876	149.917603	-236.340729	105.526009
7408.635203	148.398010	-232.834030	102.486855
7408.638573	146.644653	-230.846878	99.564583
7408.641923	145.183517	-228.275269	95.765633
7408.645225	143.021042	-225.060791	93.194038
7408.648561	141.735245	-223.132080	90.680885
7408.651864	140.157227	-221.144928	87.115730
7408.655191	138.462311	-218.281128	83.842781
7408.658111	137.585617	-216.293976	82.089424
7408.661441	136.767395	-214.131500	80.160713
7408.664767	134.780243	-212.202805	77.706017
7408.668103	133.436005	-210.332550	75.601997
7408.671442	131.916428	-208.754517	73.848625
7408.674804	131.098190	-206.416718	71.627708
7408.678103	129.578613	-204.955582	69.991234
7408.681441	128.760376	-203.319107	68.588547
7408.684763	128.351257	-201.682632	67.010513
7408.688106	127.182350	-200.104614	64.964935
7408.691432	126.364113	-198.760376	62.744003
7408.694772	124.902977	-196.948578	61.165985
7408.698103	125.019875	-195.955002	60.698418
7408.701432	124.143196	-194.201630	58.945068
7408.704768	123.734070	-192.331375	58.126823
7408.708104	122.448280	-191.396255	56.431908
7408.711434	122.039162	-190.402679	55.146118
7408.714763	121.045586	-189.409119	55.204552
7408.718136	120.928696	-188.824661	54.152542
7408.721434	120.344246	-187.655762	53.801865
7408.724764	119.584450	-186.545303	52.925186
7408.728096	118.883110	-185.201050	51.522499
7408.731428	118.590881	-184.675049	51.347168
7408.734768	117.538872	-183.856812	50.412041
7408.738100	117.421974	-182.571014	50.353592
7408.741429	116.486847	-181.752777	48.950905
7408.744761	115.376389	-181.168320	49.126236
7408.748095	114.558151	-179.765640	48.308006
7408.751427	114.324364	-179.239624	47.314438
7408.754761	113.272354	-178.012268	46.613091
7408.758092	113.681473	-177.018692	46.379311
7408.761438	113.798370	-177.018692	44.509056
7408.764761	112.454117	-176.317352	44.099937
7408.768092	112.804794	-175.674454	42.814140
7408.771431	112.454117	-174.856216	42.872589
7408.774755	110.934540	-174.388657	41.820572
7408.778140	110.876091	-173.570419	41.879021
7408.781425	110.642311	-172.869080	40.768562
7408.784757	110.583862	-172.635300	40.359436
7408.788093	110.700752	-171.524841	39.774986
7408.791423	109.940971	-171.174164	39.658096
7408.794759	109.999413	-170.998825	39.015198
7408.798088	109.940971	-170.940384	38.313858
7408.801423	109.590294	-170.297485	38.255409
7408.804768	109.473404	-170.180588	37.904732
7408.808093	109.707191	-169.479248	38.313858
7408.811424	109.648743	-170.122162	37.554062
7408.814761	109.473404	-169.888367	38.606079
7408.818092	109.122734	-170.005264	38.255409
7408.821417	109.239624	-169.420807	39.248978
7408.824754	110.233192	-170.239044	39.015198
7408.828087	110.116302	-170.063705	39.248978
7408.831425	109.999413	-170.414368	39.365868
7408.834754	110.233192	-170.998825	39.774986
7408.838087	110.642311	-170.881927	39.248978
7408.841424	110.700752	-171.524841	40.359436
7408.844753	111.402100	-171.174164	40.534775
7408.848120	111.518990	-171.817062	40.476326
7408.851421	112.278786	-172.576859	40.768562
7408.854751	112.395676	-172.635300	41.002342
7408.858090	112.454117	-173.687317	42.405029
7408.861421	113.564583	-173.453537	42.931030
7408.864748	113.681473	-174.680878	43.573936
7408.868091	113.856804	-174.797775	43.807716
7408.871416	114.558151	-175.499130	44.041496
7408.874751	115.259491	-176.142029	44.976624
7408.878088	115.668617	-176.434250	46.320862
7408.881419	116.194618	-177.369370	47.255989
7408.884748	116.662178	-178.012268	47.022209
7408.888082	117.480423	-178.479828	48.600243
7408.891417	117.772652	-179.005844	48.308006
7408.894749	118.707779	-179.882523	48.541794
7408.898084	119.467552	-180.759201	49.535362
7408.901413	119.818237	-181.343658	49.827583
7408.904752	120.110466	-182.278778	51.347168
7408.908077	120.402679	-182.687897	51.405617
7408.911414	121.162476	-184.265915	52.048508
7408.914745	122.097603	-184.791931	53.275864
7408.918073	122.857391	-185.902405	54.035645
7408.921444	122.974289	-186.311508	53.977211
7408.924743	124.552307	-187.772644	55.672127
7408.928079	125.370537	-187.947983	56.548805
7408.931415	126.247231	-189.058441	57.483932
7408.934765	127.007004	-190.227356	58.477501
7408.938078	127.942131	-192.565170	60.230858
7408.941412	128.585037	-193.617187	61.633545
7408.944750	129.520172	-194.727646	62.919350
7408.948076	131.098190	-196.247223	64.497368
7408.951406	132.150208	-197.591461	65.783173
7408.954744	133.552902	-199.169495	67.536530
7408.958075	134.780243	-201.039734	69.289894
7408.961407	135.598480	-202.442429	71.510811
7408.964740	137.877853	-204.546463	73.030396
7408.968071	138.812973	-206.124496	75.192879
7408.971402	140.449448	-207.877853	77.589119
7408.974741	141.735245	-209.923431	80.043831
7408.978088	143.021042	-211.559906	82.030968
7408.981404	144.715958	-213.663925	84.485680
7408.984735	145.475754	-215.709518	86.881935
7408.988071	147.346008	-218.047333	90.271767
7408.991441	150.092926	-220.852707	92.726479
7408.994735	151.554062	-222.839859	95.414970
7408.998073	152.956757	-225.469894	98.161888
7409.001406	154.710129	-227.573944	102.077736
7409.004737	156.463470	-229.911758	104.766228
7409.008070	158.041489	-232.950897	108.915840
7409.011402	159.561081	-234.879608	111.954994
7409.014739	161.723557	-236.808289	114.643486
7409.018072	163.710693	-239.613678	118.442436
7409.021435	165.405609	-242.185272	121.949150
7409.024733	167.860321	-244.581528	126.741661
7409.028069	169.672134	-247.445343	130.423737
7409.031403	171.367050	-250.075378	133.638214
7409.034733	173.120392	-252.705429	137.787842
7409.038065	175.691986	-255.160141	141.294556
7409.041404	177.153122	-257.381073	146.087067
7409.044736	179.666290	-260.127991	150.821167
7409.048066	181.945648	-262.582703	156.022797
7409.051423	183.815903	-265.738739	160.113953
7409.054735	186.270615	-267.316772	164.672729
7409.058062	187.965515	-270.823486	169.991241
7409.061455	190.829346	-274.213348	175.485107
7409.064738	193.576279	-276.726471	181.855652
7409.068067	195.914093	-280.116302	186.297485
7409.071405	198.251907	-283.564575	191.908234
7409.074733	200.531281	-286.194641	197.460541
7409.078066	203.161316	-289.584442	204.941559
7409.081397	205.557587	-292.740509	211.662781
7409.084731	208.772064	-296.013458	218.559326
7409.088063	210.700775	-298.468170	226.098785
7409.091394	214.032150	-302.033295	233.345978
7409.094745	216.311523	-305.540039	241.645233
7409.098057	219.116898	-309.514343	251.171814
7409.101388	222.798965	-312.378143	259.587952
7409.104726	225.545883	-316.177063	269.406769
7409.108064	228.117477	-319.333130	278.641113
7409.111391	230.805969	-322.372284	288.284607
7409.114725	234.955597	-327.047913	298.629456
7409.118058	237.234940	-329.970184	310.786072
7409.121391	240.157211	-332.950897	321.072449
7409.124745	243.021057	-336.632965	333.112213
7409.128060	246.469330	-340.022797	344.509064
7409.131386	248.807144	-343.412628	356.957947
7409.134723	251.495621	-346.510223	369.523651
7409.139359	256.814148	-352.471649	396.583862
7409.142701	259.619507	-356.270599	410.143219
7409.146083	262.015778	-359.309753	424.579163
7409.149424	264.762695	-361.706024	440.300964
7409.152319	267.217407	-364.102295	455.321442
7409.155631	269.730560	-366.440094	470.283417
7409.159349	272.009918	-368.953247	485.070099
7409.162702	274.406189	-371.875519	500.908844
7409.165592	276.393311	-373.570404	516.279968
7409.168963	278.848022	-376.200470	532.177124
7409.172327	280.309143	-376.901825	549.476929
7409.175646	282.939209	-379.239624	566.367615
7409.178913	284.049652	-380.700745	583.492126
7409.182250	285.452332	-381.694336	600.908875
7409.185564	287.030396	-382.161896	618.559387
7409.188926	287.790192	-383.097015	637.378723
7409.192257	289.251312	-382.921692	654.737000
7409.195641	289.952637	-382.921692	673.030457
7409.198968	290.829315	-383.623016	692.083618
7409.202302	290.595551	-382.454132	710.786133
7409.205564	290.478668	-381.635864	730.949768
7409.208896	289.777313	-379.999420	751.054993
7409.212290	289.309753	-379.473389	770.108154
7409.215592	288.959076	-376.784912	791.031616
7409.218924	287.848633	-374.505554	811.487427
7409.222309	286.445923	-370.940399	832.060181
7409.225677	284.692566	-367.141418	852.749878
7409.228888	282.471649	-362.874939	873.673279
7409.232237	279.783142	-358.725311	894.421448
7409.235564	276.510223	-353.815887	916.279968
7409.238938	273.354187	-348.088257	936.209839
7409.242252	269.789001	-341.776154	956.782593
7409.245167	265.288727	-334.821136	976.420227
7409.248500	260.203979	-326.989471	996.934509
7409.251829	255.469910	-319.040924	1016.630554
7409.255131	250.092926	-310.098755	1034.807129
7409.258475	244.599075	-300.572174	1053.217407
7409.261806	237.994736	-290.344238	1070.984741
7409.265133	231.039764	-279.707184	1088.167603
7409.268473	223.967850	-268.602600	1104.123291
7409.271800	216.019287	-256.855072	1118.793091
7409.275134	207.135605	-245.341324	1132.995361
7409.278492	199.187042	-232.191101	1146.671509
7409.281854	190.361786	-218.281128	1157.776123
7409.285162	181.127411	-204.721802	1168.179443
7409.288532	171.191711	-190.110458	1179.751587
7409.291797	160.963776	-175.440674	1187.524780
7409.295132	150.852722	-161.063126	1196.116211
7409.298463	140.215668	-145.984222	1202.954346
7409.301808	129.403275	-130.145523	1207.571655
7409.305148	118.473991	-113.663940	1211.428955
7409.308458	107.369377	-97.474579	1215.870728
7409.311796	96.030975	-81.694328	1218.150146
7409.315156	84.867912	-64.862068	1219.202271
7409.318484	73.529510	-48.029808	1219.260620
7409.321849	61.957336	-31.781998	1217.682617
7409.325164	50.268265	-14.832846	1215.227905
7409.328470	39.338982	3.226769	1212.305664
7409.331805	27.240795	19.825253	1207.863770
7409.335131	16.136177	37.008183	1203.071289
7409.338040	3.161309	54.308006	1196.291626
7409.341370	-8.235535	71.198715	1188.401489
7409.344701	-20.216833	88.264755	1179.868530
7409.348037	-30.853888	104.980125	1171.393921
7409.351368	-42.016953	121.929276	1160.055420
7409.354702	-53.413795	138.527771	1149.184692
7409.358039	-64.401520	154.892456	1137.846313
7409.361373	-75.155464	171.140274	1125.397339
7409.364699	-86.026299	186.862061	1110.902954
7409.368032	-95.669785	202.642319	1095.824097
7409.371364	-105.897728	218.071899	1081.563354
7409.374705	-116.534782	232.917007	1065.666260
7409.378032	-125.535362	246.826996	1048.483276
7409.381363	-134.652832	261.321442	1031.534180
7409.384695	-143.711853	274.939209	1014.117493
7409.388032	-152.653992	287.914093	996.525452
7409.391363	-160.719452	300.129150	978.407288
7409.394697	-168.317352	311.759796	960.172424
7409.398064	-175.915253	323.974884	941.060791
7409.401363	-183.104034	334.085907	921.540039
7409.404698	-189.825256	343.495605	901.843994
7409.408034	-195.903564	353.372894	881.154297
7409.411374	-201.864990	361.263031	862.977844
7409.414700	-206.949738	368.919342	843.690857
7409.418026	-212.735825	376.225037	824.403931
7409.421363	-217.177658	382.887787	804.824707
7409.424692	-221.444183	388.440094	786.355957
7409.428031	-225.067795	394.401520	767.185852
7409.431364	-228.399185	398.609589	750.295227
7409.434692	-231.905899	402.876099	731.183533
7409.438054	-235.061935	407.376404	713.299255
7409.441392	-237.808884	410.123291	695.414978
7409.444696	-239.971359	412.461151	677.647583
7409.448027	-241.841614	414.798920	661.692017
7409.451362	-243.302719	416.376984	644.918213
7409.454715	-244.939224	417.195221	628.378174
7409.458024	-246.458786	418.305695	612.831665
7409.461361	-247.744583	418.714752	596.350098
7409.464696	-247.510788	418.831696	581.212769
7409.468021	-248.445908	418.948547	565.374084
7409.471360	-248.971939	418.890137	551.931641
7409.474694	-249.205704	417.955017	536.151428
7409.478021	-249.205704	416.435425	521.656921
7409.481358	-249.322617	414.857391	507.630035
7409.484704	-249.147263	413.805389	493.778473
7409.488021	-248.153702	412.110474	480.219147
7409.491350	-247.978348	410.415558	466.893585
7409.494689	-247.101700	407.317932	453.217377
7409.498024	-246.400345	405.447693	440.768555
7409.501359	-245.056107	402.759216	427.092346
7409.504687	-243.711868	400.713623	413.708344
7409.508023	-242.835175	397.089996	402.779083
7409.511359	-241.607819	394.518433	389.745728
7409.514724	-239.445358	391.011658	377.706024
7409.518016	-238.042664	388.381622	366.835175
7409.521350	-236.464630	384.933380	354.970764
7409.524682	-234.886597	381.543549	343.690826
7409.528048	-232.607254	378.329041	333.872009
7409.531347	-231.204559	374.471649	323.351837
7409.534684	-229.217422	370.789612	313.299225
7409.538012	-227.405594	366.698425	304.123291
7409.541360	-225.944473	363.074799	294.187592
7409.544685	-223.665100	359.568085	284.894806
7409.548015	-221.911743	355.476898	275.309753
7409.551351	-219.924591	352.087097	267.185852
7409.554681	-218.054352	347.645233	259.237274
7409.558046	-215.658096	343.320282	251.171814
7409.561346	-213.612488	339.462891	243.515503
7409.564689	-211.450027	336.423737	235.683807
7409.568016	-209.229095	331.923431	228.436584
7409.571361	-207.826401	328.182953	221.540009
7409.574677	-206.131485	324.617767	216.046173
7409.578009	-203.852127	320.292816	209.558716
7409.581352	-201.572754	316.201630	203.714203
7409.584683	-199.819397	312.987152	197.285217
7409.588009	-198.475143	309.831085	191.849792
7409.591349	-195.903564	305.506134	186.297485
7409.594672	-194.208649	302.525421	182.264771
7409.598006	-191.987717	298.901825	177.121582
7409.601338	-190.409683	295.278198	172.621277
7409.604673	-189.182327	292.881958	167.361206
7409.608011	-186.727631	289.199890	163.503784
7409.611347	-185.266495	285.985382	159.471069
7409.614688	-183.746933	283.472229	155.321442
7409.618009	-182.168900	280.140869	150.996490
7409.621340	-180.006424	276.809448	147.080658
7409.624676	-178.311508	273.770325	143.223267
7409.628009	-177.084152	271.140259	139.482758
7409.631340	-175.097015	268.393341	135.917572
7409.634676	-173.577438	265.471069	132.118652
7409.638059	-172.291641	262.490356	128.202789
7409.641343	-170.246048	259.977203	125.338982
7409.644698	-168.901810	257.405609	122.416725
7409.648007	-167.089996	254.483337	118.442436
7409.651336	-165.219757	251.794861	115.169502
7409.654674	-163.700165	249.164825	112.247231
7409.658011	-161.946808	246.417877	108.974281
7409.661333	-160.193451	243.904724	106.753349
7409.664671	-159.082993	240.924026	103.305092
7409.668006	-157.154297	239.053772	100.265923
7409.671342	-156.043839	236.014603	98.103447
7409.674670	-154.056686	233.735260	95.999413
7409.678000	-153.413788	231.981873	93.486275
7409.681339	-151.660416	229.468735	90.505547
7409.684667	-150.140854	227.364716	88.343086
7409.688024	-149.907074	225.845123	86.063698
7409.691337	-148.504379	223.565750	84.485680
7409.694668	-147.919922	221.870834	82.264748
7409.698001	-146.341904	220.409714	80.745186
7409.701330	-145.231445	218.481003	79.225594
7409.704666	-143.711853	216.786102	77.296913
7409.708003	-143.244293	215.208054	75.835777
7409.711352	-141.900055	213.454697	73.497955
7409.714687	-141.140259	211.876678	72.913498
7409.717998	-140.088242	210.298660	70.751015
7409.721336	-139.211563	209.012863	69.348328
7409.724701	-138.860901	207.493286	68.179420
7409.728002	-137.867325	205.739929	67.594978
7409.731341	-137.049088	204.804779	66.075394
7409.734671	-136.815308	203.811218	65.666275
7409.737995	-135.646393	202.759201	64.789597
7409.741330	-135.704849	201.824066	62.919350
7409.744663	-135.237274	200.772079	62.685570
7409.747999	-134.886612	199.661591	61.282883
7409.751326	-133.951492	198.784927	61.399765
7409.754666	-132.957916	197.966705	59.763298
7409.757991	-133.016357	197.616013	59.178848
7409.761323	-132.782578	196.388657	59.061951
7409.764662	-131.613663	195.336655	58.068375
7409.768012	-131.438339	194.752197	57.133255
7409.771324	-130.736984	194.109299	56.548805
7409.774664	-130.503204	193.349503	56.022797
7409.777995	-129.918762	192.355927	55.613678
7409.781328	-129.217422	192.063721	55.438332
7409.784733	-128.691406	191.303925	54.561661
7409.787995	-128.749847	190.953232	53.743431
7409.791321	-128.223846	190.251907	53.158966
7409.794663	-128.165390	189.667450	52.749855
7409.797993	-127.990074	189.316772	52.808304
7409.801318	-127.464058	188.966110	51.756279
7409.804660	-126.821159	188.440094	52.048508
7409.807989	-127.054939	187.855652	51.288719
7409.811356	-126.412041	187.388092	50.119812
7409.815967	-126.236702	186.336060	49.769142
7409.819350	-126.061363	186.394501	49.067802
7409.822720	-125.652260	186.336060	48.541794
7409.826010	-125.710701	186.043839	48.892456
7409.828953	-125.535362	185.284042	48.892456
7409.832619	-126.002922	185.284042	49.009354
7409.835989	-126.645821	185.634705	48.424896
7409.839369	-126.470482	185.167145	48.541794
7409.842262	-126.061363	185.225601	49.009354
7409.845663	-125.886040	185.693161	48.892456
7409.848924	-125.827583	185.926941	49.476913
7409.852172	-126.412041	186.394501	48.541794
7409.855542	-127.054939	186.452957	49.593803
7409.858829	-127.113396	186.862061	49.243134
7409.862230	-127.697838	187.388092	49.886032
7409.865530	-127.814735	187.914093	51.113388
7409.868916	-128.282288	188.323212	50.996490
7409.872256	-128.340729	188.732315	51.580948
7409.875595	-129.042068	189.667450	51.873177
7409.878832	-129.334305	189.725906	52.106956
7409.882157	-129.860306	190.427231	53.451202
7409.885523	-131.029221	191.245468	54.736992
7409.888881	-131.204544	192.122147	55.496780
7409.892189	-131.321442	192.706619	55.847458
7409.895615	-132.315002	193.641739	56.548805
7409.898907	-133.133255	194.635300	57.074814
7409.902169	-133.600815	195.628860	57.951492
7409.905510	-134.360611	196.973114	59.938629
7409.908827	-135.178833	197.557571	59.997078
7409.912214	-135.587967	198.668030	60.990654
7409.915522	-136.523087	199.720047	61.282883
7409.918933	-136.756866	200.596710	63.094681
7409.922259	-137.633545	201.590302	64.088257
7409.925152	-138.860901	203.168320	65.841606
7409.928831	-139.211563	203.811218	66.835182
7409.931763	-139.503799	205.330811	67.711861
7409.935065	-140.205139	206.032135	68.939217
7409.938406	-141.549377	207.785522	70.225021
7409.941738	-142.075394	208.720642	70.517235
7409.945066	-143.127411	210.357101	71.452362
7409.948427	-143.536530	211.642883	72.971947
7409.951763	-144.354752	212.636475	73.731743
7409.955097	-145.172989	214.798950	75.251305
7409.958422	-146.341904	216.201645	77.180016
7409.961753	-147.452362	217.019867	77.589119
7409.965064	-148.562820	218.714783	80.394508
7409.968398	-149.614838	220.526611	82.147865
7409.971739	-150.725296	221.987732	83.316780
7409.975063	-152.127991	223.799545	84.894798
7409.978403	-153.413788	225.494461	87.232613
