time (s)	magX	magY	magZ
9475.144770	127.007004	-144.172409	58.886620
9475.148110	125.136757	-142.886612	56.490356
9475.151432	124.493858	-141.308594	54.327873
9475.154767	122.798943	-139.029236	53.217415
9475.158098	120.811806	-137.743423	51.347168
9475.161433	120.168900	-136.048508	49.418465
9475.164770	118.999992	-134.821167	47.898895
9475.168094	117.421974	-132.950912	46.028641
9475.171461	115.960838	-130.963760	44.567505
9475.174767	114.733490	-130.262421	42.346581
9475.178104	113.330803	-128.684402	41.645233
9475.181431	111.928108	-127.457047	40.593216
9475.184774	110.934540	-125.645241	39.365868
9475.188101	109.181175	-124.534767	37.320282
9475.191432	108.304497	-123.248978	36.735825
9475.194757	107.603157	-122.138519	34.105782
9475.198099	106.200470	-121.320282	34.339569
9475.201435	104.505547	-120.618935	32.235535
9475.204764	104.271767	-118.573349	31.008186
9475.208099	103.570427	-117.755112	30.248390
9475.211458	101.933952	-116.177094	29.663940
9475.214796	100.531265	-115.709526	28.728813
9475.218098	99.713036	-114.774399	26.917007
9475.221432	98.777908	-114.073059	25.806549
9475.224761	97.141441	-112.670364	24.812973
9475.228103	96.498535	-111.326126	23.351845
9475.231424	95.504967	-110.449440	22.182938
9475.234761	94.686737	-109.338982	21.247810
9475.238092	93.868492	-108.286964	20.721802
9475.241427	93.108704	-107.644066	20.488022
9475.244756	92.991814	-107.059608	19.436005
9475.248091	92.115135	-106.066048	18.500877
9475.251422	90.829338	-105.364700	18.325539
9475.254757	90.537109	-104.780251	18.208649
9475.258088	90.244881	-103.786674	17.215080
9475.261420	89.835770	-103.085327	16.747520
9475.264757	89.017532	-102.325539	16.279953
9475.268092	88.199303	-101.448860	15.520164
9475.271431	88.199303	-100.805962	14.117477
9475.274756	87.673286	-100.104614	14.292816
9475.278093	86.855057	-99.870834	14.292816
9475.281494	86.796608	-99.520164	13.766800
9475.284761	86.445938	-98.877266	13.533020
9475.288084	85.686150	-98.000580	14.175926
9475.291424	85.919930	-97.942139	13.825249
9475.294753	85.452362	-97.474579	13.123909
9475.298083	84.867912	-97.649910	13.357689
9475.301416	85.160133	-97.299240	12.597893
9475.304752	84.751022	-97.123901	13.182350
9475.308081	84.634132	-96.481003	12.247223
9475.312759	84.108116	-96.714783	12.539452
9475.316144	83.406776	-96.071892	13.007019
9475.319056	83.523666	-95.428986	12.597893
9475.322817	83.640556	-96.071892	12.597893
9475.325757	83.523666	-95.545876	11.955002
9475.329353	83.757446	-96.013443	11.545876
9475.332752	83.699005	-96.013443	12.364113
9475.335653	83.699005	-95.721214	11.838112
9475.338985	83.289886	-95.487434	12.247223
9475.342334	83.699005	-95.662766	12.305672
9475.345712	82.646988	-95.838104	11.955002
9475.349004	82.413208	-95.662766	11.838112
9475.352265	82.646988	-96.188782	11.955002
9475.355596	82.237869	-95.721214	11.487434
9475.358998	82.705429	-95.545876	12.013443
9475.362290	82.179428	-95.545876	11.253654
9475.365627	82.062538	-95.487434	10.961426
9475.369009	82.354759	-96.188782	11.604324
9475.372343	82.413208	-95.428986	11.312096
9475.375637	82.354759	-95.779663	11.078316
9475.378935	82.354759	-95.955002	11.078316
9475.382264	81.945648	-96.071892	10.844536
9475.385621	82.120979	-95.838104	10.727646
9475.388987	82.296318	-96.364113	10.786095
9475.392359	82.296318	-96.305672	11.078316
9475.395688	82.588539	-96.305672	10.844536
9475.398967	82.939217	-96.481003	11.136765
9475.402276	83.640556	-97.474579	10.902985
9475.405590	84.049675	-97.007011	12.013443
9475.408973	84.400352	-97.357689	11.955002
9475.412310	84.575684	-98.292809	12.539452
9475.415637	85.218582	-98.760376	12.656342
9475.419036	85.335472	-98.818817	13.182350
9475.422363	86.095268	-99.695503	13.825249
9475.425612	86.621269	-100.455284	14.292816
9475.428922	87.322617	-100.513733	14.643486
9475.431866	88.257744	-101.624191	15.169487
9475.435166	88.199303	-102.150208	15.111046
9475.438495	89.251312	-102.909988	16.279953
9475.441835	90.069550	-102.851547	16.981300
9475.445211	90.770897	-104.254234	17.390411
9475.448523	91.121567	-104.721802	18.091759
9475.451887	92.407364	-105.656921	18.793098
9475.455191	92.991814	-106.767387	19.728233
9475.458494	93.517822	-107.176506	20.721802
9475.461857	94.277611	-107.585625	21.423141
9475.465168	94.745178	-109.455872	22.241379
9475.468492	95.855644	-109.689651	22.650497
9475.471830	96.030975	-110.858559	23.527176
9475.475171	96.907654	-111.267677	24.053185
9475.478493	97.609001	-112.261253	24.929863
9475.481872	98.251900	-113.722382	25.397423
9475.485189	99.011688	-114.248390	26.449440
9475.488518	99.829926	-115.651077	27.501457
9475.491908	100.414375	-116.235535	28.261253
9475.495166	101.641724	-117.696663	28.787262
9475.498494	102.459961	-117.638229	30.073059
9475.501816	103.979546	-119.216248	30.774406
9475.505183	103.862656	-120.560486	32.352425
9475.508502	105.499123	-121.670944	32.177094
9475.511827	105.732903	-122.313850	34.105782
9475.515153	107.427818	-124.067207	34.047340
9475.518537	108.772064	-124.710114	35.040909
9475.521870	110.174751	-126.288139	37.670952
9475.525203	111.343658	-127.983055	38.430748
9475.528080	112.161896	-129.268845	40.710114
9475.531401	113.564583	-130.437759	41.294563
9475.534729	114.850380	-131.957336	44.158386
9475.538066	115.960838	-133.827591	45.970192
9475.541425	117.655754	-136.165405	46.262421
9475.544731	118.824661	-137.158981	49.126236
9475.548076	120.753357	-138.620102	50.996490
9475.551392	122.331383	-140.899475	53.042084
9475.554728	123.500290	-142.419052	55.905907
9475.558060	126.071884	-144.464645	58.185272
9475.561397	127.883698	-146.101120	60.172409
9475.564731	129.403275	-147.854462	63.036232
9475.568057	131.507309	-150.542953	66.309174
9475.571394	133.669785	-151.945648	69.640556
9475.574725	135.306259	-154.225006	72.971947
9475.578053	137.351837	-155.627701	75.660439
9475.581395	139.105209	-158.082413	77.939796
9475.584752	141.384567	-159.777328	82.440102
9475.588058	144.306839	-162.115143	85.420799
9475.591390	145.125076	-164.803619	88.518410
9475.594717	147.112228	-166.732315	91.966682
9475.598090	149.683823	-169.362366	96.233192
9475.601408	151.670959	-171.466400	100.032143
9475.604723	154.125656	-173.511978	103.421974
9475.608059	156.229691	-176.142029	107.454704
9475.611392	158.333725	-178.830505	111.604332
9475.614718	160.320877	-180.759201	115.987724
9475.618055	162.658691	-182.863235	119.786674
9475.621383	164.762726	-186.019287	126.040321
9475.624721	167.158981	-187.772644	131.183533
9475.628094	169.496796	-191.104034	135.683807
9475.631392	172.068390	-194.026306	141.294556
9475.634717	173.412628	-196.013443	146.963776
9475.638055	176.627136	-198.760376	151.931641
9475.641382	178.322037	-201.682632	157.542389
9475.644717	180.952072	-204.312683	164.672729
9475.648051	183.582123	-207.059616	170.108124
9475.651387	185.393921	-209.397430	176.011108
9475.654715	188.082413	-212.027466	182.615417
9475.658056	190.011108	-215.125076	189.628876
9475.661386	192.816498	-217.170670	196.466980
9475.664712	195.855652	-220.677368	203.597321
9475.668085	198.193466	-222.313858	210.727631
9475.671404	200.063705	-225.002335	219.552887
9475.674715	203.511978	-228.158371	227.910553
9475.678054	205.908249	-229.911758	236.502014
9475.681382	208.596741	-232.424896	246.496185
9475.684717	211.051437	-235.054947	256.022797
9475.688044	213.915268	-236.866730	266.601410
9475.691380	216.486862	-239.379898	277.296906
9475.694715	218.883102	-241.425491	288.752167
9475.698050	220.928711	-243.412628	300.032135
9475.701408	223.558762	-245.224426	312.714783
9475.704713	226.013443	-246.977783	324.053162
9475.708050	228.701950	-249.841614	336.911163
9475.711381	230.221512	-250.659851	349.769135
9475.714720	232.208649	-252.471664	363.270020
9475.718043	233.669800	-253.231445	376.595581
9475.721379	235.189362	-254.400345	390.563995
9475.724709	237.176514	-255.218567	404.473999
9475.728039	238.111633	-256.796631	419.026886
9475.731370	238.345428	-256.913513	433.579742
9475.734777	239.514328	-257.205719	448.950897
9475.738045	239.689651	-258.023956	464.088226
9475.741379	239.689651	-258.257751	479.225616
9475.744738	240.040344	-257.848633	495.005829
9475.748038	239.455887	-257.322632	509.324982
9475.751376	238.754532	-256.796631	524.520813
9475.754715	236.942734	-256.036835	539.775024
9475.758043	236.475174	-254.458801	555.905945
9475.761375	234.312698	-253.056122	571.510864
9475.764707	232.734680	-251.711868	586.765076
9475.768040	230.572189	-249.432495	602.077759
9475.771371	227.825256	-246.276443	618.091797
9475.774728	224.902985	-243.354172	633.229126
9475.778040	221.571609	-240.607254	648.015808
9475.781367	218.532440	-236.574524	662.451782
9475.784699	215.142609	-232.307999	677.296936
9475.788042	210.466995	-227.924606	691.674500
9475.791377	206.258926	-222.430756	705.993591
9475.794706	201.583282	-216.878433	719.845154
9475.798035	197.258331	-211.267685	733.346008
9475.801403	190.946243	-204.195801	746.846924
9475.804701	185.277039	-197.182358	760.113953
9475.808034	178.964951	-189.759781	772.621277
9475.811371	172.302170	-182.044998	785.596130
9475.814700	165.171829	-173.044418	796.700806
9475.818060	157.573929	-164.511383	807.863831
9475.821370	149.333145	-154.926361	818.325562
9475.824707	141.326141	-144.289307	827.559875
9475.828037	132.208649	-133.652252	836.911133
9475.831375	122.623611	-122.489189	844.918213
9475.834702	113.681473	-111.092346	851.171814
9475.838036	103.336647	-99.286377	856.957947
9475.841362	93.459381	-87.363533	862.802490
9475.844695	83.640556	-74.973114	865.666321
9475.848032	72.419052	-62.115135	868.354736
9475.851362	61.431328	-49.315605	870.634155
9475.854697	51.086502	-35.990063	871.393921
9475.858034	39.981880	-23.365868	870.751038
9475.861380	28.818821	-10.098772	869.932800
9475.864699	18.415546	3.577441	868.296326
9475.868056	6.375804	16.084747	865.374023
9475.871362	-4.085915	28.533607	861.633545
9475.874694	-14.372297	41.216248	857.133240
9475.878029	-25.710695	53.957336	851.054993
9475.881358	-35.471069	65.880188	845.210388
9475.884701	-45.523674	77.627701	837.203369
9475.888024	-55.517830	89.550560	829.313354
9475.891361	-65.395096	100.888962	820.546509
9475.894696	-74.921684	112.285797	811.545898
9475.898027	-84.214500	122.455292	801.376404
9475.901361	-92.981300	132.858566	790.564026
9475.904714	-101.046753	142.794281	780.745178
9475.908029	-110.164238	152.028641	768.822327
9475.911359	-117.586784	161.029221	756.841064
9475.914693	-125.827583	170.672699	744.275269
9475.918026	-132.315002	179.205734	732.586243
9475.921358	-139.328461	187.446533	718.208679
9475.924687	-145.991226	194.810638	706.344299
9475.928026	-151.835770	202.174759	692.200500
9475.931356	-157.504959	208.837509	678.232056
9475.934695	-163.115723	215.734085	665.081848
9475.938037	-169.077133	221.461731	650.645813
9475.941389	-173.460541	227.715378	636.502075
9475.944688	-177.727051	232.391006	622.767395
9475.948044	-182.168900	237.767960	607.863831
9475.951354	-185.850952	242.677383	592.726501
9475.954693	-189.065460	246.943878	578.582703
9475.958021	-192.572174	250.918182	564.205200
9475.961350	-195.085312	254.600250	550.295166
9475.964684	-197.832260	258.048523	535.216309
9475.968022	-200.053177	260.210999	519.786682
9475.971351	-201.689651	262.256592	504.532379
9475.974686	-203.793671	264.243713	491.206879
9475.978018	-204.904129	266.639984	476.127960
9475.981354	-205.254822	267.399780	461.925751
9475.984703	-205.839279	268.276459	448.132690
9475.988016	-206.365280	268.919342	434.164215
9475.991355	-206.599045	269.094696	420.020447
9475.994688	-206.657516	269.562256	406.811798
9475.998020	-206.657516	269.503815	393.953827
9476.001350	-206.482178	268.860901	381.621857
9476.004727	-205.839279	268.101105	368.880768
9476.008028	-205.430161	267.516663	357.717682
9476.011345	-204.845688	265.471069	345.853302
9476.014685	-203.735245	264.243713	335.216248
9476.018013	-203.326111	262.198151	323.760956
9476.021349	-202.040314	260.970795	313.591461
9476.024680	-200.637634	258.808319	303.655731
9476.028043	-199.293381	256.879608	292.960266
9476.031343	-198.299820	254.483337	284.076538
9476.034682	-196.312668	252.145538	274.725281
9476.038015	-194.968445	249.690826	266.367615
9476.041350	-192.864395	247.177673	258.360596
9476.044680	-191.753937	244.664520	249.944458
9476.048011	-190.175919	242.385147	241.820587
9476.051347	-188.714767	239.521347	234.222687
9476.054674	-186.610748	236.423737	227.442993
9476.059390	-182.694901	231.864975	213.766785
9476.062328	-181.175339	228.650497	206.285797
9476.065947	-179.421967	226.429581	199.506134
9476.069306	-177.376389	223.507309	193.953827
9476.072735	-175.330795	221.111038	186.414368
9476.076032	-172.525421	218.597900	181.154297
9476.078972	-170.830505	215.558746	175.075989
9476.082286	-168.609573	213.045578	169.523682
9476.085551	-166.271759	210.415558	165.315613
9476.089305	-164.167725	207.785522	159.821716
9476.092212	-162.531265	205.681473	154.210968
9476.095541	-160.427231	202.525421	148.483368
9476.098888	-158.264755	199.778488	143.807709
9476.102279	-156.277618	197.206909	139.365875
9476.105590	-153.764450	194.985962	133.813568
9476.108909	-151.718872	192.414383	129.079498
9476.112192	-150.023956	189.316772	124.754524
9476.115519	-148.270599	187.037399	120.429573
9476.118876	-145.932785	184.582703	115.695488
9476.122240	-143.887192	181.601990	112.188774
9476.125587	-142.367615	179.322617	108.156044
9476.128923	-140.555801	176.692566	104.473991
9476.132252	-138.217987	175.231445	101.259499
9476.135532	-136.873749	172.426071	97.285225
9476.138845	-135.412613	170.263596	94.772057
9476.142181	-132.899475	167.925781	91.382240
9476.145548	-131.146103	165.763306	88.985970
9476.148863	-129.568085	163.659271	85.888374
9476.152259	-128.691406	161.204559	82.849205
9476.155619	-127.288719	159.568085	79.517830
9476.158900	-125.710701	157.288727	77.881355
9476.162184	-123.314445	155.886032	75.368202
9476.165539	-121.853310	153.197540	72.270599
9476.168873	-120.918175	151.794861	71.043251
9476.172208	-119.398598	150.041504	68.588547
9476.175609	-117.586784	147.937469	66.542953
9476.178923	-116.827003	146.710114	64.614265
9476.181803	-115.132095	145.424316	62.101112
9476.185092	-113.904739	143.612503	61.224434
9476.188421	-113.437180	142.092941	59.529510
9476.191749	-112.209824	140.924011	58.419052
9476.195107	-111.157799	139.112213	56.490356
9476.198423	-110.222672	137.943314	55.204552
9476.201789	-109.462891	136.189957	54.210991
9476.205087	-108.118645	134.962601	52.866737
9476.208476	-106.715950	133.618362	51.931618
9476.211809	-105.254814	131.923447	50.178261
9476.215118	-104.670372	131.163651	49.418465
9476.218443	-103.033897	130.871414	47.723549
9476.221772	-102.040329	128.650497	46.963768
9476.225082	-100.871422	127.130920	45.561073
9476.228418	-100.170074	126.838684	44.041496
9476.231752	-99.351845	124.968445	43.106369
9476.235086	-99.001167	124.442444	41.645233
9476.238413	-98.124489	123.390411	41.060783
9476.241759	-96.429573	122.163055	39.658096
9476.245109	-96.195793	120.935699	38.021622
9476.248461	-95.143768	120.000580	37.086502
9476.251787	-94.091759	119.299240	36.268265
9476.255113	-93.565750	118.656342	35.216248
9476.258415	-92.104614	117.487427	34.748688
9476.261746	-91.753944	116.435425	33.988892
9476.265103	-90.994156	115.792511	33.112213
9476.268417	-90.351257	114.857391	31.651077
9476.271746	-89.474586	114.039162	31.008186
9476.275090	-88.364113	113.396255	31.066628
9476.278460	-88.364113	112.168915	29.196373
9476.281801	-88.013451	111.759789	28.436592
9476.285133	-87.136765	111.818237	27.969025
9476.288029	-86.961426	110.883110	27.384567
9476.291340	-86.084747	110.064880	26.800117
9476.294680	-85.675629	109.538872	26.741669
9476.297988	-85.850967	109.480423	26.741669
9476.301316	-84.857391	108.779076	25.748100
9476.304649	-85.383400	108.253067	25.338982
9476.307985	-84.331390	108.019287	24.696083
9476.311317	-84.097603	107.201057	24.929863
9476.314651	-84.448280	106.265930	24.170074
9476.317984	-84.331390	106.149033	24.696083
9476.321315	-84.097603	105.973701	24.696083
9476.324653	-83.805374	105.389252	24.403862
9476.327986	-83.454704	105.681473	23.936295
9476.331318	-83.513153	105.213905	23.936295
9476.334657	-83.571594	104.804794	24.462303
9476.337990	-84.039162	104.980125	24.345413
9476.341317	-83.279373	105.097023	24.286964
9476.344654	-83.571594	105.038574	23.877846
9476.347986	-83.454704	105.389252	24.462303
9476.351314	-83.045593	104.804794	24.520752
9476.354650	-83.396263	105.272354	24.696083
9476.357984	-83.279373	104.804794	24.286964
9476.361312	-84.156052	104.921677	25.046753
9476.364676	-83.279373	105.038574	24.929863
9476.367978	-83.688484	105.272354	23.994736
9476.371314	-83.396263	105.272354	23.936295
9476.374648	-83.396263	104.863243	24.637642
9476.377978	-83.805374	104.980125	24.345413
9476.381334	-83.220924	105.155457	25.046753
9476.384640	-83.922264	105.681473	24.929863
9476.387976	-83.396263	106.382812	24.170074
9476.391310	-83.980713	105.623032	24.812973
9476.394646	-83.337814	106.382812	24.754532
9476.397976	-84.039162	106.207481	24.812973
9476.401307	-84.214500	106.382812	24.871422
9476.404642	-83.396263	106.908829	24.929863
9476.407976	-84.097603	106.733490	24.403862
9476.411310	-84.389832	107.434837	25.105202
9476.414642	-84.156052	108.253067	25.046753
9476.417993	-85.266510	108.779076	24.812973
9476.421308	-84.389832	108.662193	25.046753
9476.424645	-85.091171	109.305084	25.338982
9476.427971	-86.260078	109.538872	25.923439
9476.431355	-85.850967	110.064880	26.390999
9476.434641	-86.376968	110.649330	26.215660
9476.437975	-87.136765	111.116890	26.566330
9476.441310	-87.312103	111.292221	27.559906
9476.444638	-87.370552	112.052017	28.144363
9476.447969	-88.364113	113.279373	28.495033
9476.451308	-89.299240	114.097595	29.313271
9476.454641	-89.766800	114.974289	30.248390
9476.457972	-90.292809	116.143188	31.943314
9476.461342	-90.877274	116.610764	32.118645
9476.464642	-91.987732	117.604324	32.936874
9476.467972	-92.689072	119.065460	33.638222
9476.471308	-93.565750	119.766800	34.339569
9476.474638	-94.150208	121.344833	35.274689
9476.477968	-94.909988	122.104614	36.677376
9476.481297	-95.319115	122.981308	37.495621
9476.484634	-96.604912	124.150208	38.489189
9476.487968	-97.890709	125.377563	40.008766
9476.491298	-98.592056	126.137344	40.593216
9476.494639	-98.942719	127.423141	42.054359
9476.497971	-100.345406	128.708939	43.457047
9476.501358	-100.637642	129.936295	44.099937
9476.504671	-102.040329	131.163651	45.385735
9476.507968	-102.624786	131.923447	46.788422
9476.511318	-103.150787	133.267685	48.658676
9476.514632	-104.261253	134.787262	48.834023
9476.517964	-105.313263	136.189957	50.412041
9476.521299	-106.248390	137.592636	52.106956
9476.524631	-106.774399	138.703094	52.925186
9476.527967	-108.878433	140.690231	54.503212
9476.531296	-109.287552	141.683807	55.438332
9476.534632	-110.807137	143.086502	57.483932
9476.537968	-111.157799	144.839859	59.295731
9476.541296	-112.385155	146.359436	60.990654
9476.544632	-113.670959	147.937469	62.042664
9476.547985	-114.898315	149.515488	63.796028
9476.551295	-116.242546	151.502640	65.900055
9476.554629	-117.762123	153.314438	68.296318
9476.557965	-118.872597	155.301575	70.634132
9476.561296	-120.567497	157.113388	71.861488
9476.564628	-122.203972	158.808289	74.725319
9476.567960	-123.314445	160.678558	77.063133
9476.571298	-124.834007	162.724136	79.050255
9476.574668	-126.470482	165.120407	82.206322
9476.577964	-127.405602	167.458221	84.368797
9476.581292	-129.334305	169.679138	87.875511
9476.584622	-130.736984	171.900055	90.680885
9476.587963	-132.022797	174.120972	94.362938
9476.591331	-134.185272	176.108124	96.992989
9476.594624	-135.704849	179.322617	101.259499
