time (s)	magX	magY	magZ
3694.509812	376.554626	-185.381638	-231.194046
3694.513186	379.769135	-186.550552	-237.097015
3694.516480	383.451172	-187.777908	-243.759796
3694.519814	387.308563	-189.648148	-249.487442
3694.523147	391.165985	-191.167740	-256.559326
3694.526504	395.257141	-192.862640	-262.228516
3694.529810	398.588531	-194.557556	-269.358856
3694.533147	402.153717	-195.843369	-277.073639
3694.536471	405.777313	-198.298065	-284.087067
3694.539821	409.868469	-200.168320	-291.568085
3694.543142	413.725891	-201.746353	-299.341309
3694.546476	418.167725	-203.090591	-307.699005
3694.549813	422.141998	-205.019287	-315.472229
3694.553143	425.531830	-206.831085	-325.174164
3694.556497	429.798340	-208.526001	-333.590302
3694.559810	434.123291	-209.987137	-342.941559
3694.563142	437.337799	-211.857391	-352.585052
3694.566479	442.013428	-214.428986	-363.514313
3694.569812	445.578613	-215.831680	-372.690247
3694.573161	449.786682	-217.585037	-384.028656
3694.576476	454.111603	-219.338394	-394.548828
3694.579806	458.085907	-221.267090	-406.004089
3694.583148	462.235535	-223.488022	-417.751617
3694.586470	466.092896	-225.007584	-429.966675
3694.589810	469.950317	-227.111633	-442.532440
3694.593140	472.931030	-228.631210	-456.325531
3694.596472	477.080658	-230.618332	-468.482147
3694.599822	480.353577	-232.371719	-481.632385
3694.603140	483.042084	-233.891281	-495.717712
3694.606474	487.133240	-236.170654	-508.984802
3694.609806	491.808868	-237.748672	-522.894775
3694.613149	495.315582	-239.560486	-539.434814
3694.616468	498.004089	-240.554047	-554.221497
3694.619806	500.751007	-242.365860	-570.060181
3694.623137	503.614838	-243.885452	-584.320862
3694.626472	506.420197	-245.288132	-600.977783
3694.631175	510.394501	-248.444183	-633.122681
3694.634494	512.849243	-248.794846	-649.253601
3694.637851	514.427246	-249.905304	-667.137939
3694.641159	515.888367	-251.074219	-683.911743
3694.644575	517.700195	-251.600220	-701.503784
3694.647459	518.459961	-252.067780	-718.803589
3694.650739	519.219788	-252.243118	-737.096985
3694.654076	519.804199	-253.236710	-754.864380
3694.657749	520.388611	-252.886032	-772.807068
3694.661096	520.154907	-253.353592	-792.210999
3694.663984	519.628906	-252.769135	-811.322632
3694.667344	519.161316	-252.067780	-830.843323
3694.670671	518.459961	-251.950912	-848.961426
3694.674080	516.589722	-251.132660	-869.417236
3694.677428	515.128601	-249.846863	-888.704285
3694.680647	512.790771	-248.911743	-909.452332
3694.683975	510.511383	-247.509048	-929.440674
3694.687348	507.121552	-245.931030	-949.896484
3694.690674	503.439484	-244.119217	-969.592651
3694.694004	499.289856	-242.658096	-989.464050
3694.697386	495.257172	-239.969620	-1009.686157
3694.700745	488.535950	-237.807129	-1030.141968
3694.704086	482.574493	-235.644653	-1050.188843
3694.707312	476.203949	-232.430145	-1070.410889
3694.710665	469.365845	-229.391006	-1090.983765
3694.713985	461.767975	-226.644058	-1109.919922
3694.717326	453.468719	-223.371124	-1129.849854
3694.720680	444.643463	-219.338394	-1148.201660
3694.724063	435.409088	-215.364120	-1168.423828
3694.727382	425.707184	-211.272934	-1186.424927
3694.730706	414.777863	-207.181747	-1204.659912
3694.733976	404.023956	-202.798355	-1222.427246
3694.737302	392.685547	-198.181183	-1238.675049
3694.740641	380.938019	-192.687317	-1255.156616
3694.744012	367.670929	-187.251892	-1271.170776
3694.747355	354.520721	-181.524261	-1285.431274
3694.750715	341.487427	-175.855057	-1299.925781
3694.754064	326.992950	-169.659851	-1313.485229
3694.756900	312.907654	-163.289307	-1326.284668
3694.760640	298.062500	-156.743423	-1338.558228
3694.763546	282.574524	-149.379303	-1349.896606
3694.766889	266.911163	-142.716537	-1360.825806
3694.770213	251.598495	-134.884857	-1369.475830
3694.773561	235.935135	-127.286972	-1378.008789
3694.776886	219.453537	-119.805969	-1386.249512
3694.780238	202.504379	-111.039162	-1393.964355
3694.783574	184.737000	-102.798363	-1398.873779
3694.786909	167.378723	-94.440681	-1404.659912
3694.790261	150.020462	-85.440102	-1407.582153
3694.793549	131.785507	-76.322617	-1411.264282
3694.796883	114.251900	-66.971359	-1414.420288
3694.800205	95.666283	-57.912331	-1414.478760
3694.803547	77.548218	-48.444183	-1414.361816
3694.806877	59.021038	-39.618935	-1414.303345
3694.810251	40.786091	-29.215664	-1412.140869
3694.813541	22.434250	-19.981298	-1410.562866
3694.816902	2.796611	-9.344244	-1406.880737
3694.820231	-15.496785	0.591467	-1402.263672
3694.823565	-34.549973	10.118059	-1397.588013
3694.826950	-52.784924	19.703096	-1391.275879
3694.830215	-70.902977	29.405024	-1384.963867
3694.833537	-88.787254	38.873177	-1376.430786
3694.836870	-106.554649	48.925774	-1367.488647
3694.840212	-125.081818	58.452362	-1357.903564
3694.843537	-142.615417	66.926941	-1348.318604
3694.846884	-159.915253	76.453529	-1338.032227
3694.850204	-177.682632	85.571007	-1326.401489
3694.853146	-194.281113	93.870247	-1314.595581
3694.856450	-209.944473	102.753937	-1302.438965
3694.859780	-225.724731	111.462303	-1288.996582
3694.863111	-240.219177	119.118645	-1275.904785
3694.866448	-255.824081	127.417870	-1261.176514
3694.869789	-270.727661	134.898895	-1246.857422
3694.873113	-284.754547	142.321457	-1232.421387
3694.876450	-297.846283	149.627121	-1216.641113
3694.879778	-310.938049	156.640564	-1201.211548
3694.883113	-323.211578	163.186447	-1184.554687
3694.886447	-335.660431	169.849213	-1168.657471
3694.889774	-347.232635	176.921097	-1152.585083
3694.893110	-358.687897	182.239624	-1136.337280
3694.896474	-368.389832	188.084167	-1118.979004
3694.899779	-379.202209	193.753357	-1103.315674
3694.903108	-389.137970	198.487442	-1085.197632
3694.906443	-397.612488	203.221512	-1068.189941
3694.909776	-405.502625	208.306259	-1052.059082
3694.913103	-413.509644	212.338989	-1035.343628
3694.916445	-421.399750	217.774414	-1017.634644
3694.919769	-427.887238	221.865585	-1001.211487
3694.923102	-434.316193	225.606079	-984.437744
3694.926441	-440.277649	228.762131	-966.962585
3694.929771	-445.537689	232.502625	-949.545837
3694.933107	-451.090027	235.541794	-933.298096
3694.936438	-456.233185	239.165390	-916.757996
3694.939856	-460.558167	242.321457	-900.159485
3694.943105	-464.240234	245.302170	-882.625916
3694.946438	-469.266541	247.172440	-866.787231
3694.949770	-472.597900	249.977798	-850.305664
3694.953102	-475.870819	251.848038	-834.116272
3694.956433	-478.559326	253.426071	-818.686707
3694.959767	-481.130920	255.530106	-803.374023
3694.963100	-483.351868	256.874329	-787.184692
3694.966437	-485.046753	258.218567	-771.988892
3694.969773	-487.150787	259.036804	-756.208618
3694.973102	-488.202820	260.264160	-741.597290
3694.976435	-489.430176	261.199280	-726.810608
3694.979766	-490.131500	261.549957	-711.907043
3694.983140	-490.365295	261.608429	-697.763245
3694.986436	-490.774414	262.134399	-683.502563
3694.989765	-490.423767	262.075989	-669.884827
3694.993103	-491.183533	261.491516	-655.682617
3694.996430	-490.189972	261.608429	-642.824646
3694.999760	-490.248413	261.374634	-629.674438
3695.003099	-489.196381	260.322601	-617.108704
3695.006433	-488.085907	259.913513	-605.127380
3695.009764	-487.501465	260.147278	-592.444763
3695.013102	-486.566345	258.744568	-579.703674
3695.016437	-485.572784	258.218567	-568.891235
3695.019766	-484.462341	257.225006	-556.909973
3695.023106	-483.059631	256.582092	-545.863770
3695.026462	-480.955566	255.354752	-533.940979
3695.029767	-479.260651	254.828751	-524.122131
3695.033099	-477.273529	253.484512	-512.316162
3695.036427	-475.695496	252.783188	-501.971375
3695.039761	-473.474579	251.497391	-492.386322
3695.043095	-471.195190	250.503799	-482.976624
3695.046425	-468.798950	249.334915	-473.566925
3695.049763	-466.402710	248.808884	-463.689667
3695.053092	-463.363525	247.347763	-454.689056
3695.056426	-461.259521	246.237289	-446.915833
3695.059757	-458.512573	245.185287	-439.084167
3695.063092	-456.759247	243.315018	-430.784943
3695.066424	-454.362946	242.905899	-423.128571
3695.069764	-452.375824	241.444778	-414.770905
3695.073086	-449.219788	240.451218	-406.705444
3695.076423	-446.823517	239.691422	-398.815308
3695.079758	-444.661011	237.762711	-392.444763
3695.083107	-441.972565	236.418488	-385.723572
3695.086462	-439.459412	235.658691	-377.891876
3695.089752	-437.063141	234.197540	-371.287567
3695.093083	-433.907104	233.320877	-364.624786
3695.096419	-431.686127	231.567505	-358.721802
3695.099783	-429.465210	230.573944	-352.117493
3695.103090	-427.010498	229.288147	-345.688477
3695.106427	-423.971405	227.593231	-339.960846
3695.109752	-421.808899	226.424316	-334.057861
3695.113106	-419.412628	224.787857	-328.505554
3695.116422	-417.308594	223.852722	-322.251923
3695.119758	-414.620148	222.391586	-317.108734
3695.123091	-412.282288	221.398010	-311.790192
3695.126424	-409.769135	220.462891	-306.939209
3695.129752	-408.074249	218.651077	-302.497375
3695.133081	-405.327301	216.605499	-297.529510
3695.136420	-403.223267	215.728836	-293.730560
3695.139748	-400.943909	214.384583	-288.704254
3695.143099	-398.606079	213.215652	-284.846863
3695.146417	-396.385162	211.812973	-280.346588
3695.149754	-394.164246	210.059616	-276.372314
3695.153085	-392.761536	209.416718	-272.456451
3695.156431	-390.306824	208.072464	-268.540619
3695.159751	-388.261261	207.195801	-264.390991
3695.163082	-386.741699	205.676224	-261.644073
3695.166416	-384.812988	205.208664	-258.312683
3695.169749	-382.358276	203.805969	-255.390427
3695.173112	-381.890717	202.578613	-252.760376
3695.176414	-379.377594	201.760391	-250.071884
3695.179752	-378.267090	201.643494	-247.675629
3695.183077	-376.221527	200.123901	-244.578018
3695.186433	-374.292816	199.364105	-241.363541
3695.189747	-373.240814	198.604324	-239.084167
3695.193082	-371.779694	197.260086	-236.746353
3695.196414	-370.376984	197.610764	-234.642319
3695.199744	-368.565186	196.324966	-231.720047
3695.203077	-366.870270	196.091171	-229.265350
3695.206411	-365.350677	195.331375	-226.985977
3695.209741	-364.357117	194.571609	-225.349503
3695.213075	-363.421997	193.753357	-224.005264
3695.216438	-362.662201	193.344254	-221.141449
3695.219749	-361.084167	192.409134	-220.030991
3695.223080	-360.265961	191.824677	-218.803635
3695.226402	-358.512573	191.766235	-216.874924
3695.229765	-358.395691	190.889542	-215.063126
3695.233076	-356.233215	190.538879	-212.725311
3695.236411	-355.356537	190.597321	-211.673294
3695.239741	-355.122772	189.837524	-210.329056
3695.243074	-354.304504	189.311523	-209.452377
3695.246408	-353.427826	188.551727	-208.400360
3695.249746	-352.609589	188.025711	-206.004089
3695.253068	-352.317383	187.850372	-206.237869
3695.256406	-351.206909	187.499710	-204.426071
3695.259769	-350.797791	187.032150	-204.776749
3695.263079	-349.745789	186.155457	-203.315613
3695.266406	-349.278198	185.804794	-201.854477
3695.269739	-348.693756	185.220337	-200.977798
3695.273070	-349.453552	185.161896	-200.334885
3695.276408	-347.875519	184.752777	-200.042679
3695.279744	-347.758636	184.752777	-200.159561
3695.283075	-347.758636	184.577438	-199.867325
3695.286403	-347.875519	184.402100	-199.575104
3695.289739	-347.817078	184.168335	-198.756866
3695.293067	-347.349518	183.350082	-199.341324
3695.296420	-347.641724	183.583878	-199.399765
3695.299737	-347.524872	183.642319	-199.107544
3695.303121	-346.998840	183.700775	-200.101105
3695.306403	-347.291077	184.285202	-200.159561
3695.309734	-347.700195	184.168335	-200.042679
3695.313064	-348.518433	183.759216	-201.562241
3695.316399	-348.752228	183.817642	-201.796021
3695.319737	-348.752228	183.876114	-201.737595
3695.323063	-349.628876	184.285202	-202.263596
3695.326401	-349.862671	184.869675	-202.848053
3695.329736	-350.271790	184.869675	-203.841629
3695.333063	-350.973145	184.986557	-204.016953
3695.336396	-351.440704	185.512558	-205.478088
3695.339764	-352.083588	185.804794	-206.763885
3695.343066	-352.142029	185.746353	-207.173004
3695.346403	-353.135620	185.921692	-208.108124
3695.349728	-353.486267	186.213913	-208.926361
3695.353062	-353.836945	186.798386	-210.387497
3695.356391	-355.181183	187.558151	-211.381073
3695.359731	-356.116333	187.675049	-212.082413
3695.363066	-357.109894	187.791946	-214.537109
3695.367766	-359.038605	188.493271	-216.407364
3695.371079	-360.090576	189.194626	-218.277618
3695.374498	-361.084167	189.545288	-219.855652
3695.377390	-362.019287	190.363525	-221.199890
3695.381099	-363.246643	190.421982	-223.011688
3695.384439	-364.883118	191.240219	-224.531281
3695.387353	-366.344269	191.123322	-227.336655
3695.390663	-366.578033	192.175339	-228.680893
3695.394337	-367.805389	192.350677	-230.843369
3695.397692	-369.850983	192.701355	-232.888962
3695.400607	-371.428986	193.578018	-235.226776
3695.403940	-372.831665	194.688492	-238.616608
3695.407288	-374.234375	194.279388	-240.311523
3695.410650	-376.455322	195.448273	-243.467560
3695.413982	-377.799530	196.149628	-246.448288
3695.417231	-379.552917	196.617203	-249.545883
3695.420590	-381.773834	197.260086	-251.708359
3695.423912	-383.936310	198.019882	-255.331970
3695.427274	-384.754547	199.188782	-258.429565
3695.430587	-387.033905	199.890137	-262.345398
3695.433979	-389.313293	200.416138	-266.027466
3695.437318	-390.657532	202.227951	-269.709534
3695.440583	-392.820007	202.344849	-273.625366
3695.443910	-395.683838	203.689072	-277.424286
3695.447240	-397.086487	204.916428	-281.047943
3695.450606	-399.541199	206.377548	-285.022186
3695.453927	-401.703705	206.845108	-289.288727
3695.457274	-404.450623	207.429581	-294.081238
3695.460679	-407.022217	209.182922	-298.113953
3695.463975	-408.541809	209.241394	-303.490936
3695.467238	-411.522522	211.111633	-307.699005
3695.470574	-413.626556	212.455887	-311.965546
3695.473897	-416.081268	212.689651	-318.043854
3695.477257	-419.003510	214.267685	-323.245483
3695.480597	-421.107544	215.144363	-328.739319
3695.483995	-423.562256	216.079498	-334.525452
3695.486868	-425.666321	217.482178	-339.610168
3695.490173	-428.530090	218.651077	-345.220917
3695.493922	-430.809479	219.819992	-352.059021
3695.497236	-433.673309	220.229126	-357.728241
3695.500146	-436.011108	221.573349	-363.338989
3695.503476	-437.822937	221.807144	-369.943298
3695.506804	-440.628326	222.683807	-376.722961
3695.510141	-443.609009	223.735825	-382.742859
3695.513495	-446.180603	224.144958	-389.873169
3695.516828	-448.810638	225.489182	-396.594391
3695.520163	-451.323822	226.365875	-403.841614
3695.523499	-454.012268	227.125671	-410.796600
3695.526815	-456.291656	228.236130	-419.504974
3695.530172	-458.804810	229.054352	-427.511963
3695.533481	-461.493286	230.281708	-435.168335
3695.536804	-464.473999	230.866165	-442.766235
3695.540135	-467.571625	232.151962	-452.000580
3695.543488	-470.669189	232.736420	-460.358276
3695.546805	-472.773254	233.613113	-469.768005
3695.550131	-475.052612	234.080673	-478.885468
3695.553494	-477.215088	234.606674	-488.762695
3695.556823	-480.838715	235.249557	-498.815308
3695.560168	-482.942749	235.658691	-509.043274
3695.563471	-484.579193	236.067795	-519.271179
3695.566802	-486.916992	237.178268	-529.148437
3695.570132	-489.254822	237.645844	-541.129761
3695.573486	-491.475739	238.113403	-552.175903
3695.576805	-492.820007	237.938049	-562.871399
3695.580136	-495.040924	238.347168	-574.443604
3695.583465	-496.092926	237.938049	-586.541748
3695.586794	-497.670959	238.639389	-598.581543
3695.590164	-498.839874	238.990067	-610.212158
3695.593482	-500.359436	238.288727	-622.836304
3695.596417	-501.762146	238.054947	-635.752747
3695.599722	-502.405029	238.054947	-648.786072
3695.603038	-503.164856	238.054947	-661.994690
3695.606375	-504.099976	238.054947	-675.437134
3695.609738	-503.690857	237.236710	-688.762695
3695.613037	-504.684448	235.834030	-702.088196
3695.616375	-504.918152	235.191132	-716.816467
3695.619707	-504.684448	233.963776	-730.025085
3695.623037	-503.690857	233.087082	-744.636475
3695.626366	-503.106384	232.210419	-758.604858
3695.629708	-502.054382	230.749268	-773.450012
3695.633033	-500.943909	229.814148	-786.892456
3695.636368	-499.365875	228.002350	-801.094666
3695.639703	-497.670959	225.839874	-816.407349
3695.643031	-495.917572	223.268265	-832.304504
3695.646365	-493.930450	221.398010	-846.682068
3695.649704	-491.826416	219.001770	-862.345398
3695.653054	-489.839294	216.547058	-879.353027
3695.656366	-486.916992	214.267685	-894.315002
3695.659701	-483.468750	211.170074	-910.329041
3695.663030	-479.377594	207.195801	-926.810608
3695.666379	-475.695496	203.747528	-942.357056
3695.669700	-471.721252	200.182358	-958.604858
3695.673036	-465.642914	195.915833	-975.437134
3695.676364	-460.441284	191.941574	-991.509583
3695.679701	-455.122742	188.434830	-1008.049622
3695.683028	-448.927521	183.350082	-1024.063721
3695.686365	-442.849243	178.323792	-1040.895996
3695.689695	-435.952698	173.823502	-1057.552856
3695.693030	-428.939209	168.329636	-1073.449951
3695.696394	-420.815308	162.894226	-1090.866821
3695.699695	-412.632965	157.225021	-1106.471680
3695.703025	-402.989502	151.380493	-1123.187134
3695.706362	-394.281128	145.009949	-1139.960937
3695.709699	-384.988342	139.223846	-1156.442505
3695.713028	-375.052612	132.561081	-1171.813599
3695.716361	-364.590881	126.190529	-1188.412109
3695.719690	-353.544708	119.410881	-1203.315674
3695.723028	-342.030975	112.397423	-1218.511475
3695.726355	-330.400360	105.150200	-1234.233276
3695.729696	-318.126831	97.727646	-1247.091187
3695.733035	-305.677979	90.246628	-1261.468750
3695.736367	-292.469330	82.707191	-1274.911255
3695.739725	-279.494446	75.109291	-1287.067871
3695.743025	-265.759796	67.043831	-1300.276489
3695.746354	-251.557571	58.978371	-1312.959106
3695.749688	-237.764465	50.796021	-1324.531250
3695.753024	-223.503784	42.789009	-1335.226807
3695.756352	-208.308014	34.898888	-1345.162476
3695.759693	-193.404449	25.898306	-1356.091797
3695.763023	-177.916412	18.008181	-1364.800171
3695.766354	-161.902390	9.358269	-1374.209839
3695.769687	-146.881943	0.766802	-1382.859741
3695.773020	-130.984802	-7.123321	-1390.223877
3695.776349	-114.444763	-16.065460	-1397.295776
3695.779687	-97.495613	-25.825834	-1403.841675
3695.783016	-81.890709	-34.358856	-1407.640625
3695.786358	-64.941551	-43.242550	-1413.017578
3695.789688	-48.985973	-51.424896	-1416.115234
3695.793015	-32.387493	-60.133255	-1420.381714
3695.796354	-15.555230	-68.315605	-1422.368896
3695.799715	1.218586	-76.556396	-1423.537720
3695.803015	19.687317	-85.264755	-1425.174194
3695.806354	35.993572	-93.797783	-1425.700195
3695.809690	52.475159	-101.921684	-1424.531250
3695.813051	69.307426	-110.863831	-1423.420776
3695.816350	85.438347	-118.695511	-1420.498535
3695.819683	101.978378	-125.767387	-1418.277710
3695.823016	118.635300	-133.891296	-1413.426758
3695.826355	135.584442	-141.839859	-1409.627808
3695.829686	151.130920	-149.320862	-1404.542969
3695.833017	167.612503	-156.392746	-1397.178833
3695.836347	183.275864	-163.932190	-1390.516113
3695.839680	199.523682	-170.244293	-1383.210449
3695.843011	214.836349	-176.439499	-1374.911255
3695.846346	230.032150	-182.926941	-1363.981934
3695.849680	244.877258	-188.946808	-1354.981323
3695.853017	259.079498	-195.200455	-1344.168945
3695.856345	273.047913	-200.986557	-1333.765625
3695.859678	286.841003	-206.714188	-1321.725952
3695.863010	300.225006	-211.915833	-1309.627808
3695.866345	312.381622	-216.708359	-1296.594482
3695.869683	325.181183	-221.208649	-1282.625977
3695.873008	337.337799	-225.650482	-1269.125122
3695.876379	348.559296	-229.741669	-1255.156616
3695.879683	359.254822	-233.540604	-1241.305054
3695.883014	369.774994	-237.456436	-1226.518433
3695.886342	380.119812	-240.904739	-1211.088867
