time (s)	det(V)
1948.562532	0.515142	
1948.564303	0.496345	
1948.565787	0.478311	
1948.567555	0.464715	
1948.569045	0.448912	
1948.570835	0.430204	
1948.572314	0.420162	
1948.574073	0.408782	
1948.575567	0.396765	
1948.577304	0.386582	
1948.578827	0.375750	
1948.580532	0.360531	
1948.582061	0.351120	
1948.583780	0.338351	
1948.585329	0.325222	
1948.587014	0.314358	
1948.588565	0.306007	
1948.590225	0.297802	
1948.591798	0.286800	
1948.593441	0.278558	
1948.595034	0.270832	
1948.596657	0.262719	
1948.598287	0.253406	
1948.599896	0.245236	
1948.601543	0.234682	
1948.603148	0.227540	
1948.604792	0.220982	
1948.606396	0.215217	
1948.608064	0.208598	
1948.609624	0.202334	
1948.611319	0.198649	
1948.612872	0.190326	
1948.614566	0.184960	
1948.616117	0.176779	
1948.617810	0.172227	
1948.619356	0.165024	
1948.621104	0.157624	
1948.622600	0.154744	
1948.624359	0.150687	
1948.625841	0.145515	
1948.627621	0.141168	
1948.629107	0.138687	
1948.630878	0.134054	
1948.632362	0.127907	
1948.634121	0.124636	
1948.635609	0.117119	
1948.637358	0.112366	
1948.638863	0.110799	
1948.640616	0.108181	
1948.642132	0.103419	
1948.643850	0.101518	
1948.645380	0.099238	
1948.647095	0.092704	
1948.648658	0.089038	
1948.650360	0.087016	
1948.651915	0.082971	
1948.653596	0.078137	
1948.655152	0.075241	
1948.656806	0.074335	
1948.658393	0.072163	
1948.660025	0.069158	
1948.661635	0.068832	
1948.663243	0.065017	
1948.664872	0.060852	
1948.666477	0.060099	
1948.668114	0.056997	
1948.669701	0.051663	
1948.671353	0.050124	
1948.672928	0.049967	
1948.674634	0.047727	
1948.676179	0.046128	
1948.677872	0.045762	
1948.679413	0.043349	
1948.681141	0.038712	
1948.682671	0.037387	
1948.684393	0.038587	
1948.685884	0.034623	
1948.687657	0.030249	
1948.689138	0.029338	
1948.690925	0.031743	
1948.692406	0.028573	
1948.694173	0.029439	
1948.695661	0.028927	
1948.697398	0.025362	
1948.698896	0.023453	
1948.700650	0.023767	
1948.702161	0.020577	
1948.703894	0.019533	
1948.705418	0.019122	
1948.707130	0.019739	
1948.708670	0.016222	
1948.710360	0.018643	
1948.711920	0.016762	
1948.713593	0.016863	
1948.715168	0.015944	
1948.716835	0.013793	
1948.718422	0.012742	
1948.720080	0.011561	
1948.721673	0.011658	
1948.723290	0.011686	
1948.724907	0.012754	
1948.726526	0.009849	
1948.728189	0.013805	
1948.729763	0.012742	
1948.731426	0.011859	
1948.733010	0.009680	
1948.734696	0.009990	
1948.736278	0.007130	
1948.737973	0.006768	
1948.739510	0.008592	
1948.741194	0.010010	
1948.742740	0.006993	
1948.744444	0.010023	
1948.745944	0.011501	
1948.747683	0.008391	
1948.749167	0.006755	
1948.750951	0.006357	
1948.752446	0.002751	
1948.754216	0.001627	
1948.755697	0.002510	
1948.757480	0.004967	
1948.758957	0.004073	
1948.760711	0.006929	
1948.762220	0.006445	
1948.763977	0.004294	
1948.765498	0.001551	
1948.767235	0.003758	
1948.768754	0.002655	
1948.770456	0.000987	
1948.771989	0.001265	
1948.773692	0.002707	
1948.775246	0.000806	
1948.776920	0.003827	
1948.778489	0.004717	
1948.780153	0.004097	
1948.781762	0.001209	
1948.783411	0.002522	
1948.785007	-0.000032	
1948.786637	-0.000371	
1948.788247	0.001051	
1948.789865	0.001382	
1948.791503	0.001430	
1948.793097	0.000572	
1948.794766	0.002401	
1948.796340	0.003356	
1948.798022	0.001261	
1948.799604	-0.000463	
1948.801298	0.000826	
1948.802867	-0.001889	
1948.804568	-0.002627	
1948.806112	0.000834	
1948.807825	-0.000032	
1948.809377	-0.001176	
1948.811098	0.001104	
1948.812611	0.000286	
1948.814360	-0.000669	
1948.815847	-0.001873	
1948.817632	0.000556	
1948.819110	-0.002832	
1948.820888	-0.003513	
1948.822372	-0.001982	
1948.824131	-0.000274	
1948.825620	-0.002727	
1948.827352	0.000214	
1948.828854	0.000387	
1948.830598	-0.001289	
1948.832115	-0.002610	
1948.833857	-0.002002	
1948.835384	-0.003525	
1948.837073	-0.005007	
1948.838614	-0.003746	
1948.840297	-0.001934	
1948.841844	-0.002469	
1948.843507	-0.001652	
1948.845096	-0.000544	
1948.846738	-0.001672	
1948.848332	-0.003682	
1948.849973	-0.002747	
1948.851585	-0.003791	
1948.853214	-0.004798	
1948.854846	-0.004423	
1948.856439	-0.002159	
1948.858103	-0.001486	
1948.859675	-0.004185	
1948.861374	-0.000423	
1948.862954	0.000117	
1948.864617	-0.002393	
1948.866177	-0.003468	
1948.867886	-0.001551	
1948.869431	-0.003783	
1948.871144	-0.004826	
1948.872682	-0.002320	
1948.874423	-0.001640	
1948.875939	-0.003074	
1948.877698	0.000145	
1948.879193	0.001055	
1948.880943	-0.001793	
1948.882439	-0.002643	
1948.884221	-0.000512	
1948.885703	-0.002784	
1948.887488	-0.002602	
1948.888971	-0.001454	
1948.890722	0.000109	
1948.892221	-0.001361	
1948.893972	0.001076	
1948.895487	0.001833	
1948.897227	0.000995	
1948.898748	-0.001402	
1948.900462	0.001599	
1948.902002	-0.002236	
1948.903695	-0.002369	
1948.905238	-0.001587	
1948.906909	0.000060	
1948.908467	0.000403	
1948.910123	0.000838	
1948.911711	0.002018	
1948.913370	0.002635	
1948.914969	0.000757	
1948.916599	0.001543	
1948.918210	0.000733	
1948.919814	-0.000822	
1948.921468	-0.000306	
1948.923048	0.001108	
1948.924718	0.002361	
1948.926290	0.000548	
1948.927983	0.002635	
1948.929551	0.003037	
1948.931253	0.001104	
1948.932807	0.000761	
1948.934530	0.001354	
1948.936060	-0.001321	
1948.937756	-0.001740	
1948.939267	0.000685	
1948.941025	0.001535	
1948.942509	0.000898	
1948.944275	0.002373	
1948.945763	0.003601	
1948.947541	0.000201	
1948.949025	0.000016	
1948.950804	0.000947	
1948.952281	-0.001285	
1948.954047	-0.002763	
1948.955547	-0.000246	
1948.957270	0.000753	
1948.958785	0.000246	
1948.960518	0.002212	
1948.962053	0.001970	
1948.963761	0.000415	
1948.965295	-0.000512	
1948.967002	0.000552	
1948.968555	-0.002373	
1948.970243	-0.003569	
1948.971814	-0.003158	
1948.973469	-0.001406	
1948.975059	-0.000173	
1948.976707	-0.000060	
1948.978305	0.001100	
1948.979944	0.000431	
1948.981549	-0.000600	
1948.983180	-0.001329	
1948.984844	-0.001398	
1948.986430	-0.004097	
1948.988097	-0.004709	
1948.989681	-0.001607	
1948.991345	-0.001164	
1948.992918	-0.001672	
1948.994608	0.000113	
1948.996172	-0.000935	
1948.997888	-0.001402	
1948.999423	-0.002453	
1949.001117	-0.001140	
1949.002643	-0.004560	
1949.004362	-0.005434	
1949.005839	-0.002256	
1949.007626	-0.002598	
1949.009107	-0.002864	
1949.010864	-0.000560	
1949.012358	0.000149	
1949.014135	-0.001777	
1949.015621	-0.002933	
1949.017380	-0.001575	
1949.018876	-0.003823	
1949.020609	-0.005571	
1949.022126	-0.004089	
1949.023844	-0.001942	
1949.025372	-0.003609	
1949.027092	-0.001104	
1949.028632	-0.000645	
1949.030338	-0.001914	
1949.031883	-0.003956	
1949.033558	-0.002904	
1949.035122	-0.004310	
1949.036797	-0.006010	
1949.038368	-0.005672	
1949.040000	-0.003630	
1949.041612	-0.003682	
1949.043237	-0.005172	
1949.044858	-0.002381	
1949.046460	-0.002578	
1949.048074	-0.005257	
1949.049679	-0.005048	
1949.051354	-0.003928	
1949.052916	-0.007662	
1949.054610	-0.010111	
1949.056165	-0.008085	
1949.057861	-0.006828	
1949.059403	-0.007082	
1949.061097	-0.005970	
1949.062642	-0.006792	
1949.064356	-0.009487	
1949.065846	-0.010868	
1949.067608	-0.009374	
1949.069088	-0.012363	
1949.070855	-0.014973	
1949.072339	-0.013696	
1949.074094	-0.012673	
1949.075578	-0.014885	
1949.077344	-0.013032	
1949.078854	-0.014409	
1949.080610	-0.015610	
1949.082137	-0.018148	
1949.083621	-0.018401	
1949.085234	-0.020665	
1949.086726	-0.022506	
1949.088364	-0.022893	
1949.089867	-0.023288	
1949.091429	-0.023159	
1949.092937	-0.025250	
1949.094496	-0.025266	
1949.096002	-0.026039	
1949.097544	-0.028440	
1949.099048	-0.031473	
1949.100554	-0.029612	
1949.102118	-0.034221	
1949.103621	-0.035707	
1949.105213	-0.037036	
1949.106717	-0.036936	
1949.108376	-0.039973	
1949.109865	-0.040779	
1949.111486	-0.040118	
1949.113014	-0.041460	
1949.114643	-0.045689	
1949.116124	-0.049432	
1949.117681	-0.048872	
1949.119187	-0.052654	
1949.120734	-0.056513	
1949.122242	-0.057963	
1949.123830	-0.057242	
1949.125358	-0.061247	
1949.126906	-0.061210	
1949.128508	-0.062870	
1949.130006	-0.065863	
1949.131665	-0.069493	
1949.133167	-0.072429	
1949.134808	-0.073388	
1949.136301	-0.079720	
1949.137946	-0.082121	
1949.139428	-0.083108	
1949.141066	-0.084953	
1949.142555	-0.088450	
1949.144185	-0.088599	
1949.145665	-0.091072	
1949.147272	-0.095314	
1949.148785	-0.100217	
1949.150354	-0.103024	
1949.151907	-0.107238	
1949.153399	-0.111347	
1949.155073	-0.115053	
1949.156556	-0.117454	
1949.158177	-0.121462	
1949.159700	-0.125829	
1949.161320	-0.126610	
1949.162797	-0.130654	
1949.164438	-0.137644	
1949.165910	-0.143304	
1949.167555	-0.146180	
1949.169038	-0.154470	
1949.170653	-0.160267	
1949.172166	-0.163087	
1949.173723	-0.166076	
1949.175291	-0.173886	
1949.176815	-0.177399	
1949.178439	-0.182406	
1949.179929	-0.189569	
1949.181544	-0.198894	
1949.183058	-0.205690	
1949.184694	-0.210504	
1949.186174	-0.220353	
1949.187807	-0.228507	
1949.189285	-0.233925	
1949.190913	-0.240039	
1949.192395	-0.250384	
1949.194001	-0.256032	
1949.195513	-0.265011	
1949.197072	-0.273696	
1949.198611	-0.285423	
1949.200127	-0.294043	
1949.201753	-0.306982	
1949.203251	-0.317557	
1949.204881	-0.328340	
1949.206394	-0.336719	
1949.208023	-0.347801	
1949.209502	-0.361312	
1949.211133	-0.371500	
1949.212619	-0.382827	
1949.214243	-0.397793	
1949.215739	-0.412017	
1949.217343	-0.420541	
1949.218861	-0.435631	
1949.220424	-0.450914	
1949.221970	-0.463700	
1949.223494	-0.477279	
1949.225112	-0.495806	
1949.226604	-0.509333	
1949.228234	-0.525615	
1949.229757	-0.541946	
1949.231376	-0.562676	
1949.232866	-0.579152	
1949.234503	-0.596908	
1949.235988	-0.616405	
1949.237619	-0.636769	
1949.239117	-0.653571	
1949.240751	-0.670884	
1949.242233	-0.691711	
1949.243917	-0.709121	
1949.245420	-0.729335	
1949.247057	-0.750500	
1949.248589	-0.773820	
1949.250201	-0.792213	
1949.251785	-0.813705	
1949.253347	-0.834736	
1949.254957	-0.855740	
1949.256489	-0.873368	
1949.258140	-0.893353	
1949.259618	-0.914050	
1949.261324	-0.932298	
1949.262801	-0.952243	
1949.264518	-0.974378	
1949.265997	-0.995233	
1949.267697	-1.011729	
1949.269190	-1.033603	
1949.270908	-1.055186	
1949.272399	-1.069865	
1949.274087	-1.086216	
1949.275568	-1.103873	
1949.277232	-1.117239	
1949.278735	-1.131100	
1949.280375	-1.148712	
1949.281913	-1.165115	
1949.283535	-1.179246	
1949.285118	-1.193350	
1949.286687	-1.206478	
1949.288310	-1.216565	
1949.289855	-1.224831	
1949.291486	-1.235301	
1949.292995	-1.242334	
1949.294694	-1.244852	
1949.296171	-1.249170	
1949.297867	-1.259664	
1949.299352	-1.265525	
1949.301061	-1.266637	
1949.302561	-1.273509	
1949.304276	-1.276224	
1949.305764	-1.276019	
1949.307460	-1.275294	
1949.308940	-1.275761	
1949.310599	-1.272655	
1949.312096	-1.269956	
1949.313745	-1.266568	
1949.315291	-1.264639	
1949.316909	-1.258383	
1949.318483	-1.253372	
1949.320064	-1.247756	
1949.321658	-1.241976	
1949.323206	-1.235377	
1949.324834	-1.225467	
1949.326343	-1.215457	
1949.328020	-1.199964	
1949.329510	-1.187476	
1949.331213	-1.174223	
1949.332693	-1.161618	
1949.334410	-1.144651	
1949.335896	-1.131386	
1949.337584	-1.113790	
1949.339078	-1.094559	
1949.340782	-1.073052	
1949.342262	-1.054969	
1949.343943	-1.029836	
1949.345451	-1.008583	
1949.347107	-0.985778	
1949.348645	-0.965476	
1949.350246	-0.939058	
1949.351818	-0.916141	
1949.353401	-0.891834	
1949.355008	-0.864558	
1949.356561	-0.834398	
1949.358184	-0.804919	
1949.359710	-0.778384	
1949.361373	-0.746863	
1949.362979	-0.716199	
1949.364673	-0.685411	
1949.366244	-0.656020	
1949.367935	-0.620780	
1949.369487	-0.591708	
1949.371191	-0.557141	
1949.372741	-0.522699	
1949.374417	-0.486754	
1949.375955	-0.454902	
1949.377687	-0.419062	
1949.379184	-0.387843	
1949.380934	-0.353143	
1949.382419	-0.320147	
1949.384197	-0.279537	
1949.385676	-0.248994	
1949.387444	-0.212961	
1949.388927	-0.175985	
1949.390687	-0.135029	
1949.392191	-0.102323	
1949.393936	-0.061420	
1949.395441	-0.024371	
1949.397154	0.013128	
1949.398686	0.047772	
1949.400391	0.087096	
1949.401932	0.122823	
1949.403608	0.157129	
1949.405170	0.193319	
1949.406870	0.232934	
1949.408454	0.266030	
1949.410130	0.303469	
1949.411700	0.339430	
1949.413347	0.374791	
1949.414944	0.402844	
1949.416583	0.433935	
1949.418199	0.467575	
1949.419801	0.500176	
1949.421448	0.534212	
1949.423049	0.567884	
1949.424705	0.601714	
1949.426302	0.631423	
1949.427968	0.667807	
1949.429536	0.695763	
1949.431221	0.726213	
1949.432769	0.750524	
1949.434484	0.783400	
1949.436018	0.807493	
1949.437728	0.834370	
1949.439248	0.864816	
1949.440981	0.893485	
1949.442477	0.916109	
1949.444251	0.943352	
1949.445736	0.967514	
1949.447522	0.992373	
1949.449005	1.013513	
1949.450799	1.039109	
1949.452288	1.056016	
1949.454023	1.076339	
1949.455513	1.096267	
1949.457256	1.117746	
1949.458771	1.135318	
1949.460503	1.154001	
1949.462033	1.171605	
1949.463747	1.185112	
1949.465278	1.198989	
1949.466986	1.212130	
1949.468538	1.224291	
1949.470247	1.230056	
1949.471815	1.236449	
1949.473483	1.248372	
1949.475056	1.258584	
1949.476717	1.263934	
1949.478318	1.273501	
1949.479948	1.277481	
1949.481551	1.279761	
1949.483163	1.282960	
1949.484797	1.283475	
1949.486388	1.281344	
1949.488049	1.281767	
1949.489643	1.282073	
1949.491309	1.279366	
1949.492889	1.275415	
1949.494576	1.271704	
1949.496130	1.266492	
1949.497846	1.255680	
1949.499385	1.248131	
1949.501099	1.240912	
1949.502661	1.231804	
1949.504375	1.223485	
1949.505899	1.213354	
1949.507629	1.200290	
1949.509113	1.186199	
1949.510887	1.173087	
1949.512365	1.159379	
1949.514137	1.142283	
1949.515615	1.123386	
1949.517364	1.106559	
1949.518860	1.087151	
1949.520608	1.067916	
1949.522124	1.049821	
1949.523864	1.033385	
1949.525381	1.010645	
1949.527115	0.991446	
1949.528640	0.972634	
1949.530341	0.951437	
1949.531888	0.932794	
1949.533573	0.909011	
1949.535132	0.886170	
1949.536793	0.864014	
1949.538381	0.844835	
1949.540035	0.825375	
1949.541629	0.806284	
1949.543268	0.783786	
1949.544863	0.765002	
1949.546498	0.744707	
1949.548126	0.723518	
1949.549720	0.702330	
1949.551390	0.683832	
1949.552990	0.662268	
1949.554653	0.640354	
1949.556252	0.624289	
1949.557910	0.608147	
1949.559476	0.587700	
1949.561167	0.570946	
1949.562695	0.556110	
1949.564410	0.538002	
1949.565920	0.519826	
1949.567654	0.505482	
1949.569149	0.486186	
1949.570925	0.469968	
1949.572417	0.457690	
1949.574188	0.442998	
1949.575668	0.428416	
1949.577442	0.416134	
1949.578920	0.407743	
1949.580701	0.394965	
1949.582189	0.382872	
1949.583935	0.368426	
1949.585439	0.356482	
1949.587159	0.344752	
1949.588686	0.335918	
1949.590398	0.326040	
1949.591931	0.311820	
1949.593640	0.303578	
1949.595178	0.295433	
1949.596853	0.283328	
1949.598416	0.274494	
1949.600097	0.265511	
1949.601685	0.256181	
1949.603323	0.245683	
1949.604926	0.237973	
1949.606548	0.232414	
1949.608145	0.225989	
1949.609766	0.217239	
1949.611426	0.213714	
1949.613016	0.205896	
1949.614692	0.196147	
1949.616270	0.188864	
1949.617945	0.184674	
1949.619529	0.177448	
1949.621213	0.170148	
1949.622777	0.166317	
1949.624477	0.162156	
1949.626031	0.154490	
1949.627742	0.151316	
1949.629288	0.145596	
1949.631012	0.138759	
1949.632519	0.133676	
1949.634252	0.130538	
1949.635740	0.123452	
1949.637494	0.119552	
1949.638982	0.117083	
1949.640763	0.112938	
1949.642246	0.108438	
1949.644035	0.107000	
1949.645522	0.103081	
1949.647270	0.098174	
1949.648778	0.093368	
1949.650486	0.092031	
1949.652007	0.084804	
1949.653714	0.081747	
1949.655252	0.080373	
1949.656939	0.079966	
1949.658501	0.076458	
1949.660174	0.074443	
1949.661749	0.072989	
1949.663417	0.069766	
1949.664988	0.065589	
1949.666627	0.063780	
1949.668229	0.059490	
1949.669857	0.056131	
1949.671473	0.051675	
1949.673076	0.053814	
1949.674735	0.051913	
1949.676338	0.050004	
1949.677996	0.050406	
1949.679573	0.047353	
1949.681252	0.044360	
1949.682812	0.038543	
1949.684529	0.043905	
1949.686096	0.037056	
1949.687777	0.035018	
1949.689331	0.034337	
1949.691035	0.033910	
1949.692563	0.030889	
1949.694298	0.031852	
1949.695780	0.033149	
1949.697555	0.029983	
1949.699041	0.027763	
1949.700808	0.028049	
1949.702290	0.023763	
1949.704074	0.022389	
1949.705568	0.023264	
1949.707357	0.022591	
1949.708840	0.020448	
1949.710592	0.021564	
1949.712101	0.022406	
1949.713824	0.020428	
1949.715350	0.018454	
1949.717055	0.019267	
1949.718595	0.016911	
1949.720285	0.013257	
1949.721830	0.010345	
1949.723530	0.013100	
1949.725084	0.010780	
1949.726765	0.010848	
1949.728345	0.011497	
1949.730003	0.011424	
1949.731599	0.008894	
1949.733216	0.008810	
1949.734822	0.008335	
1949.736450	0.006216	
1949.738068	0.004774	
1949.739679	0.006490	
1949.741326	0.007734	
1949.742924	0.004987	
1949.744614	0.007819	
1949.746177	0.007835	
1949.747873	0.005607	
1949.749450	0.004524	
1949.751144	0.005003	
1949.752686	0.002054	
1949.754381	0.002183	
1949.755907	0.003851	
1949.757647	0.003714	
1949.759145	0.002739	
1949.760912	0.004528	
1949.762395	0.005930	
1949.764166	0.003356	
1949.765648	0.001728	
1949.767444	0.004093	
1949.768937	0.000906	
1949.770705	0.000093	
1949.772193	0.001482	
1949.773933	0.002775	
1949.775433	0.000931	
1949.777147	0.004089	
1949.778665	0.002715	
1949.780393	0.002731	
1949.781927	-0.000109	
1949.783629	0.002445	
1949.785182	0.000056	
1949.786856	-0.001434	
1949.788419	-0.000689	
1949.790094	0.000931	
1949.791671	0.001124	
1949.793327	0.000451	
1949.794922	0.003251	
1949.796543	0.001233	
1949.798183	-0.000153	
1949.799815	-0.001744	
1949.801428	-0.000761	
1949.803048	-0.002699	
1949.804694	-0.002598	
1949.806291	-0.000959	
1949.807976	0.000032	
1949.809545	-0.001265	
1949.811234	0.001507	
1949.812789	0.001011	
1949.814496	-0.000439	
1949.816053	-0.001591	
1949.817725	-0.000471	
1949.819277	-0.002973	
1949.820992	-0.004612	
1949.822499	-0.001994	
1949.824260	-0.001362	
1949.825742	-0.003021	
1949.827522	0.000761	
1949.829005	0.000052	
1949.830764	-0.001285	
1949.832250	-0.002554	
1949.834027	-0.000729	
1949.835517	-0.003404	
1949.837287	-0.004766	
1949.838780	-0.002365	
1949.840523	-0.001450	
1949.842034	-0.003702	
1949.843737	-0.000221	
1949.845268	0.000137	
1949.846970	-0.002014	
1949.848526	-0.002244	
1949.850219	-0.001893	
1949.851765	-0.001615	
1949.853444	-0.004862	
1949.855024	-0.004242	
1949.856692	-0.002868	
1949.858291	-0.001100	
1949.859942	-0.002079	
1949.861558	-0.000181	
1949.863183	-0.000185	
1949.864811	-0.001869	
1949.866434	-0.002256	
1949.868055	-0.002139	
1949.869662	-0.004036	
1949.871333	-0.003638	
1949.872909	-0.001200	
1949.874593	-0.001027	
1949.876169	-0.003033	
1949.877867	0.000391	
1949.879432	0.000802	
1949.881123	-0.001575	
1949.882676	-0.003553	
1949.884371	0.000101	
1949.885919	-0.003609	
1949.887650	-0.003501	
1949.889153	-0.001168	
1949.890910	-0.000209	
1949.892395	-0.001474	
1949.894167	0.002139	
1949.895660	0.001168	
1949.897441	0.000604	
1949.898936	-0.001688	
1949.900727	-0.000177	
1949.902209	-0.002175	
1949.903965	-0.002550	
1949.905464	-0.001172	
1949.907187	0.001067	
1949.908705	-0.000544	
1949.910417	0.001551	
1949.911944	0.001140	
1949.913660	-0.000040	
1949.915203	-0.000318	
1949.916876	0.001374	
1949.918436	0.000528	
1949.920117	-0.001934	
1949.921690	-0.002538	
1949.923337	0.000850	
1949.924925	-0.000407	
1949.926550	0.000234	
1949.928170	0.001917	
1949.929791	0.002498	
1949.931411	-0.000926	
1949.933011	-0.000657	
