time (s)	magX	magY	magZ
1948.564558	260.489777	-195.023392	-291.955597
1948.567899	258.093506	-193.445358	-282.078308
1948.571225	255.638809	-191.224442	-272.376404
1948.574558	252.950333	-188.945068	-262.615997
1948.577890	249.969620	-186.724136	-252.855621
1948.581222	247.690247	-184.152542	-244.322632
1948.584554	244.651077	-182.106964	-236.140259
1948.587890	242.488617	-180.061386	-226.847443
1948.591246	240.150803	-177.781998	-219.249573
1948.594549	237.403870	-175.210403	-212.528351
1948.597899	234.890717	-172.814148	-203.995331
1948.601276	231.500885	-170.417892	-196.397430
1948.604563	228.929276	-168.021637	-190.377563
1948.607888	225.831665	-165.800705	-182.545898
1948.611225	222.734085	-163.755127	-176.292221
1948.614557	220.688477	-160.599075	-170.038574
1948.617888	217.649338	-158.962601	-163.668030
1948.621227	215.019287	-155.572769	-158.291061
1948.624551	212.506149	-153.644073	-152.855652
1948.627882	209.583878	-151.189362	-147.127991
1948.631216	206.486267	-148.676224	-142.335480
1948.634554	204.265350	-146.689072	-136.374054
1948.637887	201.635315	-144.351257	-130.529510
1948.641222	198.479248	-142.130341	-125.970779
1948.644554	195.440094	-139.850967	-121.821152
1948.647883	193.219177	-137.688492	-117.145531
1948.651214	190.706024	-135.818237	-112.995911
1948.654544	187.725311	-133.538864	-107.794273
1948.657886	185.270599	-131.493286	-103.293976
1948.661218	182.114563	-129.506134	-100.430161
1948.664549	179.893631	-127.226768	-96.806549
1948.667887	177.555817	-125.707191	-92.832260
1948.671212	175.042679	-123.895378	-89.500877
1948.674549	172.646408	-122.258911	-86.461716
1948.677916	170.483932	-121.031555	-82.896545
1948.681212	167.970779	-118.752190	-80.208069
1948.684545	166.334320	-117.232620	-77.402687
1948.687875	163.762726	-116.122147	-75.415543
1948.691217	161.600235	-114.602570	-72.201050
1948.694542	159.028641	-113.258331	-69.980125
1948.697883	157.567505	-111.738747	-66.999413
1948.701208	155.346573	-110.394501	-65.713615
1948.704544	154.002335	-109.576271	-63.726475
1948.707884	152.132095	-107.706017	-60.570427
1948.711203	150.670959	-106.127991	-59.518410
1948.714544	148.800705	-105.485100	-57.180595
1948.717873	146.813568	-104.316193	-56.011688
1948.721230	145.410873	-103.264175	-53.556984
1948.724544	143.540634	-102.738159	-52.797195
1948.727921	142.254822	-101.218582	-50.459381
1948.731206	141.144363	-99.699005	-48.881355
1948.734543	139.624786	-98.822327	-46.894215
1948.737878	137.988312	-97.594971	-46.075977
1948.741212	137.345413	-96.484512	-44.205727
1948.744539	135.416718	-95.081818	-43.095264
1948.747882	133.604919	-94.380478	-42.218586
1948.751209	132.611343	-94.029808	-40.465225
1948.754542	131.208649	-92.451782	-39.237869
1948.757872	130.273529	-91.282875	-37.893631
1948.761206	128.695511	-90.639977	-37.192284
1948.764562	127.585030	-89.061951	-34.386909
1948.767875	126.708351	-88.828163	-34.211571
1948.771209	125.773232	-88.068382	-32.984219
1948.774539	124.136757	-86.957916	-32.984219
1948.777870	123.318527	-86.081238	-31.639977
1948.781205	122.383408	-85.204559	-30.997076
1948.784543	121.448280	-85.087669	-30.061951
1948.787868	120.980713	-83.860313	-29.068380
1948.791210	119.870247	-82.749855	-27.315020
1948.794566	118.526009	-81.990067	-27.139685
1948.797867	118.116890	-81.522507	-26.613674
1948.801201	117.298653	-80.762711	-25.269432
1948.804534	116.655754	-80.938049	-25.094095
1948.807870	115.486847	-80.061371	-24.100525
1948.811199	115.369949	-79.769142	-23.808298
1948.814533	114.142609	-79.360023	-22.580946
1948.817867	113.908829	-78.717125	-22.405611
1948.821200	113.090584	-77.781998	-22.054939
1948.824528	112.272362	-77.431328	-21.295149
1948.827862	111.687897	-77.606667	-20.769142
1948.831199	111.395668	-77.197548	-20.184689
1948.834537	110.577438	-76.963760	-20.243134
1948.837877	110.226761	-76.320869	-19.249561
1948.841198	110.051430	-76.729980	-19.249561
1948.844528	109.057854	-76.028641	-18.489769
1948.847862	108.765633	-75.502632	-18.723553
1948.851193	108.824074	-75.736412	-18.372879
1948.854533	108.473404	-75.035072	-18.723553
1948.857867	108.648743	-74.976624	-18.548214
1948.861202	108.064285	-74.801285	-18.431324
1948.864526	107.538277	-74.567505	-18.606663
1948.867896	107.362946	-73.983055	-18.139099
1948.871194	107.187607	-74.099945	-18.372879
1948.874527	107.129166	-74.041496	-18.255989
1948.877860	107.362946	-73.749275	-17.963760
1948.881220	106.836937	-73.457047	-17.671535
1948.884531	106.720039	-74.041496	-17.496201
1948.887853	106.895378	-73.047928	-18.255989
1948.891196	106.661598	-73.106369	-17.320862
1948.894545	106.836937	-73.223259	-17.963760
1948.897864	107.129166	-73.164818	-17.437756
1948.901196	107.187607	-72.814148	-17.320862
1948.904525	107.012276	-72.872589	-17.145527
1948.907860	107.129166	-73.047928	-17.613091
1948.911188	107.246056	-73.457047	-17.846870
1948.914528	107.713615	-72.814148	-17.203972
1948.917856	107.129166	-73.223259	-16.561073
1948.921199	107.830505	-73.106369	-17.145527
1948.924527	108.473404	-72.814148	-17.671535
1948.927856	108.064285	-72.638809	-17.262417
1948.931190	108.356514	-72.931038	-17.262417
1948.934519	108.765633	-72.989479	-17.671535
1948.937860	108.940964	-73.340149	-18.314434
1948.941193	109.057854	-73.457047	-18.548214
1948.944524	109.817650	-74.041496	-18.898888
1948.947860	109.876091	-74.099945	-18.665108
1948.951186	109.876091	-74.450615	-19.541786
1948.954538	110.109879	-74.450615	-18.781998
1948.957853	110.577438	-75.677963	-19.308006
1948.961184	110.928108	-75.794853	-20.360023
1948.964515	111.921684	-76.203979	-20.301579
1948.967854	112.389244	-76.788429	-20.243134
1948.971180	112.856804	-76.963760	-21.528931
1948.974516	113.032143	-78.015778	-21.938047
1948.977855	113.908829	-77.255989	-22.639393
1948.981182	114.434830	-77.957336	-22.580946
1948.984576	115.136169	-78.775574	-23.516071
1948.987860	115.720627	-79.184685	-24.042080
1948.991182	116.480423	-79.944481	-24.684978
1948.994517	117.590881	-80.412041	-25.620104
1948.997883	118.584457	-80.938049	-25.444769
1949.001189	119.285797	-82.048508	-27.081240
1949.004514	120.396255	-82.749855	-27.724138
1949.007846	121.214500	-82.866745	-28.250145
1949.011195	122.441841	-83.977211	-28.133255
1949.014510	123.318527	-84.035652	-29.419052
1949.017849	124.487434	-84.736992	-30.529514
1949.021180	126.123909	-85.789009	-31.932203
1949.024506	126.299240	-85.613678	-32.458214
1949.027840	127.643478	-86.724136	-33.510227
1949.031176	128.578613	-86.841026	-34.796024
1949.034515	130.624207	-88.009933	-36.140266
1949.037843	131.793106	-88.945061	-36.900059
1949.041198	133.195801	-89.938629	-37.776737
1949.044513	134.306259	-90.464645	-39.004089
1949.047851	136.001175	-91.458214	-39.530098
1949.051176	137.286972	-91.750443	-40.991234
1949.054525	139.332565	-92.627113	-41.809467
1949.057840	139.858566	-94.029808	-43.504383
1949.061176	141.495041	-94.380478	-44.848625
1949.064511	142.956177	-95.140266	-45.783752
1949.067845	145.060196	-96.309174	-46.777321
1949.071175	146.229111	-98.237877	-48.706020
1949.074506	148.274704	-98.646988	-50.693161
1949.077847	149.385162	-99.465225	-53.907654
1949.082514	152.774979	-101.452362	-57.180595
1949.085496	154.879013	-102.621269	-59.518410
1949.089206	156.632385	-103.965515	-61.037987
1949.092503	158.970200	-105.660431	-63.668030
1949.095814	160.781998	-107.180016	-65.246056
1949.099141	162.944473	-108.758034	-67.759201
1949.102551	164.347168	-110.102280	-70.330795
1949.105442	166.977219	-111.212738	-73.253067
1949.108785	169.022797	-112.907654	-76.233780
1949.112081	171.243729	-114.310341	-78.571594
1949.115778	173.406204	-115.829926	-81.844536
1949.119120	175.334900	-117.817062	-84.883698
1949.122035	177.906494	-119.511986	-88.565750
1949.125369	180.594971	-121.440681	-92.130920
1949.128793	183.751038	-123.018700	-95.111633
1949.132108	186.088852	-124.888954	-98.910576
1949.135417	188.835770	-125.940971	-101.949738
1949.138685	191.699600	-127.928108	-106.391579
1949.142044	193.978958	-129.097015	-110.248978
1949.145344	196.550552	-131.259506	-115.041496
1949.148704	199.589706	-132.720642	-119.015778
1949.152045	202.336655	-134.357101	-123.925186
1949.155422	205.200485	-136.636475	-128.717712
1949.158748	208.064285	-138.214493	-133.510223
1949.162016	211.395691	-139.734085	-139.062531
1949.165346	214.493301	-141.955002	-143.913513
1949.168676	217.824677	-143.708359	-149.933380
1949.172069	221.039169	-145.227951	-155.018127
1949.175371	223.727646	-146.396851	-161.154877
1949.178748	226.825256	-148.091766	-167.291626
1949.182074	229.572189	-149.786682	-173.077728
1949.185363	232.962006	-151.890717	-179.915833
1949.188666	236.293411	-153.527176	-186.637054
1949.192011	238.923447	-154.988312	-194.059631
1949.195365	242.663956	-156.917023	-200.780823
1949.198683	245.527771	-158.319702	-208.787842
1949.202082	248.742264	-160.248398	-216.502625
1949.205438	251.956741	-162.118652	-223.808289
1949.208725	254.820587	-164.164230	-232.691986
1949.212010	257.918182	-166.326721	-241.517242
1949.215358	260.781982	-168.372299	-249.524261
1949.218699	264.288727	-169.424316	-259.226166
1949.222027	266.334290	-170.827011	-269.571014
1949.225417	269.782562	-173.398605	-279.974274
1949.228750	272.412628	-174.801300	-290.786652
1949.232039	275.393311	-176.671539	-300.722382
1949.235338	278.374023	-178.015778	-311.943878
1949.238670	280.361176	-179.944489	-322.580933
1949.241579	282.874329	-181.756287	-335.088226
1949.244922	285.796600	-182.516083	-346.660431
1949.248253	287.433075	-184.444778	-359.284637
1949.251638	289.946228	-185.146118	-372.493286
1949.254930	291.991821	-185.847473	-386.403259
1949.258309	293.511383	-187.308609	-399.495026
1949.261579	295.440094	-188.185272	-414.457031
1949.264911	295.849213	-188.769730	-428.425476
1949.268247	296.959656	-189.003525	-442.686127
1949.271582	298.596130	-189.003525	-458.524811
1949.274931	299.005249	-188.945068	-472.960815
1949.278242	299.122162	-188.828171	-488.273529
1949.281581	299.005249	-188.009949	-503.761536
1949.284928	299.005249	-186.899475	-519.074219
1949.288259	298.537689	-185.789017	-535.848083
1949.291593	297.719452	-184.327881	-551.569885
1949.294946	296.959656	-183.275864	-567.233215
1949.298238	294.855621	-181.054947	-582.253662
1949.301580	293.686737	-178.308014	-597.624817
1949.304918	290.530670	-175.911758	-613.989441
1949.308239	289.069550	-173.223267	-629.886597
1949.311566	285.445923	-169.248978	-645.199341
1949.314916	281.997650	-166.560501	-661.154846
1949.318260	277.614227	-162.293991	-676.759766
1949.321594	273.055511	-158.670364	-691.955566
1949.324925	267.853882	-153.702530	-705.690247
1949.328235	262.769135	-149.436020	-721.236694
1949.331574	256.457031	-144.000595	-735.789612
1949.334913	249.794296	-138.857407	-749.699585
1949.338254	243.482178	-132.954422	-762.966675
1949.341573	235.241379	-127.226768	-775.473999
1949.344908	226.357697	-120.330208	-787.689087
1949.348239	217.240204	-114.485680	-799.845703
1949.351586	208.064285	-107.706017	-811.651672
1949.354938	197.777908	-101.277031	-822.580933
1949.358252	187.140854	-93.270020	-832.049072
1949.361144	176.094681	-85.964348	-840.991211
1949.364480	164.464066	-77.665108	-849.757996
1949.367840	152.307419	-69.658096	-858.115662
1949.371146	139.975464	-60.949738	-864.603149
1949.374473	127.000580	-52.182938	-870.506104
1949.377810	113.207481	-43.649914	-874.831116
1949.381153	100.057274	-34.590881	-878.571594
1949.384474	86.556396	-25.707190	-882.078247
1949.387805	72.938629	-15.771480	-883.714783
1949.391145	58.035065	-5.718879	-884.883728
1949.394475	43.774399	4.099939	-884.533020
1949.397806	29.689070	14.327877	-883.948547
1949.401143	15.428404	24.322031	-881.903015
1949.404471	0.758620	34.433083	-878.571594
1949.407812	-14.144945	44.251900	-872.668579
1949.411148	-27.470484	53.778488	-868.928040
1949.414470	-41.088249	64.766220	-862.732910
1949.417809	-54.413795	73.942139	-855.310364
1949.421146	-68.148453	83.702515	-847.887756
1949.424481	-80.772652	94.398010	-840.406738
1949.427805	-93.104622	103.340149	-830.178833
1949.431137	-104.559914	113.334312	-820.593811
1949.434473	-116.774986	121.516655	-809.664490
1949.437802	-128.522491	130.984802	-798.442993
1949.441178	-139.101105	138.816467	-786.695496
1949.444472	-148.686142	147.349503	-774.655762
1949.447804	-159.323196	155.005829	-761.797791
1949.451139	-169.142014	162.136169	-749.407349
1949.454478	-178.376373	169.441833	-735.088257
1949.457805	-187.084732	176.104614	-722.580933
1949.461135	-194.916412	181.890701	-707.209778
1949.464472	-202.631210	188.261261	-693.299805
1949.467804	-209.878418	193.696671	-678.805359
1949.471133	-217.067200	197.963181	-663.960205
1949.474463	-223.905304	202.521912	-648.764465
1949.477797	-230.042084	207.022202	-633.744019
1949.481131	-235.828171	210.295135	-618.957336
1949.484487	-241.146683	213.217407	-603.644592
1949.487802	-246.231430	216.022781	-588.331970
1949.491132	-251.140823	218.535934	-572.960815
1949.494465	-254.647568	220.230850	-558.291077
1949.497811	-258.212738	222.393326	-543.504395
1949.501131	-261.894806	223.912918	-528.308594
1949.504460	-264.992432	224.497375	-511.710083
1949.507802	-267.739349	225.315598	-498.267670
1949.511131	-269.843384	225.666275	-483.188782
1949.514464	-271.713623	226.133835	-468.285187
1949.517801	-273.350098	226.016937	-454.375244
1949.521129	-275.161896	225.958496	-440.874329
1949.524466	-274.694336	225.549377	-426.613678
1949.527813	-275.337250	225.315598	-413.405029
1949.531130	-274.694336	223.912918	-399.553467
1949.534464	-274.928101	223.737579	-386.286377
1949.537795	-274.226776	223.153122	-374.129730
1949.541132	-273.233215	221.633545	-361.505554
1949.544464	-272.707184	220.113953	-349.524261
1949.547789	-271.479828	218.711258	-338.068939
1949.551129	-269.200500	217.367035	-326.847443
1949.554461	-268.089996	215.847458	-316.444183
1949.557797	-265.927551	214.327866	-305.748657
1949.561134	-264.232635	212.632950	-295.228516
1949.564494	-262.128601	210.295135	-284.649902
1949.567794	-259.440094	208.483353	-275.357086
1949.571140	-257.277618	207.197525	-266.590302
1949.574457	-254.764481	204.509048	-256.946808
1949.577791	-252.835770	202.346573	-248.355347
1949.581125	-250.030380	200.826981	-240.173004
1949.584457	-247.166580	198.489166	-230.938629
1949.587785	-243.426071	195.800690	-223.457642
1949.591119	-241.555817	193.579773	-215.742859
1949.594457	-238.808868	191.241959	-209.021637
1949.597790	-236.061966	189.313248	-201.306824
1949.601125	-233.198120	186.917007	-194.293396
1949.604455	-230.158981	184.637619	-187.046173
1949.607811	-227.587372	182.592041	-180.617187
1949.611164	-225.834015	179.728210	-174.597305
1949.614461	-222.035049	177.916412	-167.876099
1949.617789	-219.463470	174.526581	-161.739334
1949.621122	-216.190536	172.539444	-156.713028
1949.624457	-213.677383	169.558731	-151.394501
1949.627788	-210.930450	166.928696	-144.790176
1949.631120	-208.300400	164.707764	-141.049683
1949.634455	-205.611923	162.253067	-135.438934
1949.637788	-203.157211	159.739914	-130.821747
1949.641117	-200.176498	156.642319	-126.029228
1949.644446	-197.780228	154.538269	-122.054939
1949.647785	-196.026871	152.726471	-118.139099
1949.651111	-193.279938	150.447098	-112.879013
1949.654446	-190.591461	147.875504	-109.080070
1949.657790	-187.786087	145.713028	-104.462891
1949.661116	-185.857376	143.433655	-101.248390
1949.664446	-182.876678	141.154282	-97.917007
1949.667779	-180.363525	139.108704	-93.767387
1949.671119	-178.317932	136.712433	-90.669785
1949.674474	-175.921677	134.491516	-87.572174
1949.677782	-173.817657	133.205719	-84.883698
1949.681119	-171.655167	131.627701	-81.084747
1949.684448	-169.375793	129.699005	-78.396255
1949.687779	-166.979538	128.179413	-76.818237
1949.691113	-164.057266	126.016960	-74.246643
1949.694479	-162.245468	124.614265	-71.032143
1949.697781	-160.141434	123.211571	-68.869667
1949.701112	-157.978958	121.691994	-66.590294
1949.704444	-156.050262	120.639977	-64.603157
1949.707779	-154.355331	118.419060	-63.258911
1949.711109	-152.485092	117.542381	-61.154881
1949.714440	-151.023956	116.431908	-58.524837
1949.717781	-149.329041	114.970787	-57.180595
1949.721106	-147.283447	114.094093	-55.544125
1949.724441	-145.179413	112.691399	-52.738747
1949.727770	-143.835175	111.580948	-51.686733
1949.731103	-142.549377	110.412041	-49.758034
1949.734446	-141.263580	109.009354	-48.238457
1949.737789	-139.977783	107.723549	-46.426651
1949.741105	-137.756866	106.671539	-44.264172
1949.744441	-136.646408	105.561081	-44.088837
1949.747775	-134.542358	104.333725	-41.809467
1949.751106	-133.782578	103.281700	-40.815895
1949.754440	-132.321442	102.054359	-39.237869
1949.757774	-131.152542	100.827003	-38.770309
1949.761100	-130.217407	99.891884	-37.484512
1949.764439	-128.814728	98.606079	-36.140266
1949.767801	-127.295143	97.670952	-34.503799
1949.771108	-126.184685	96.618942	-33.510227
1949.774437	-125.483345	95.742256	-32.925774
1949.777772	-123.846870	94.982475	-32.049095
1949.781105	-123.087090	94.456459	-31.113968
1949.784439	-122.210411	93.170662	-30.412622
1949.787769	-121.041496	92.410866	-29.360607
1949.791104	-120.457039	91.358856	-28.250145
1949.794437	-119.580360	90.774399	-28.074810
1949.797798	-118.937462	89.780838	-26.847456
1949.801099	-118.060783	89.137924	-25.620104
1949.804443	-117.067215	88.202805	-25.094095
1949.807765	-116.599655	87.326126	-25.386322
1949.811111	-116.132095	86.332550	-24.334307
1949.814435	-114.670952	85.864990	-22.990065
1949.817768	-114.320274	86.040337	-22.990065
1949.821104	-113.268265	85.397423	-22.756283
1949.824436	-113.034485	84.812981	-22.464056
1949.827772	-111.807129	84.637642	-21.704268
1949.831096	-111.924026	83.760956	-21.704268
1949.834432	-111.281120	83.176506	-19.834015
1949.837765	-110.345993	83.234955	-20.301579
1949.841115	-109.527763	82.475159	-20.360023
1949.844427	-108.884872	82.358269	-20.009350
1949.847760	-108.534195	82.182938	-19.775566
1949.851093	-107.891296	82.007599	-19.132668
1949.854429	-107.657516	81.656921	-18.606663
1949.857765	-107.248390	81.949150	-18.372879
1949.861101	-106.488609	81.832260	-17.788425
1949.864429	-106.663940	81.247810	-19.249561
1949.867762	-106.547043	81.481590	-18.255989
1949.871099	-105.553482	81.364700	-17.846870
1949.874428	-105.611923	81.014030	-17.320862
1949.877799	-105.962601	81.189362	-17.437756
1949.881097	-105.553482	80.838692	-16.853302
1949.884442	-105.319702	80.371124	-17.028637
1949.887763	-105.611923	80.195793	-17.379311
1949.891093	-104.969025	79.903564	-16.911747
1949.894426	-104.384575	79.436005	-16.619518
1949.897763	-104.267677	79.260666	-16.677963
1949.901090	-105.027473	79.143776	-16.911747
1949.904433	-104.852142	78.968437	-16.677963
1949.907764	-104.559914	79.377556	-16.970192
1949.911086	-104.501465	79.026886	-17.145527
1949.914425	-104.735245	79.143776	-16.444183
1949.917752	-105.202805	78.968437	-16.853302
1949.921114	-104.618355	78.793106	-17.437756
1949.924425	-105.611923	78.909996	-17.145527
1949.927756	-105.728813	78.909996	-16.794857
1949.931090	-105.845703	79.260666	-17.554646
1949.934425	-105.436584	78.909996	-17.087082
1949.937754	-105.436584	78.968437	-17.203972
1949.941089	-106.196381	78.909996	-18.314434
1949.944419	-106.897720	79.786674	-17.671535
1949.947753	-107.365288	79.436005	-18.255989
1949.951090	-107.715950	79.611343	-18.022209
1949.954418	-107.599068	80.078903	-18.080654
1949.957752	-107.715950	80.020454	-19.074223
1949.961089	-108.183525	80.663353	-18.723553
1949.964453	-108.651093	81.364700	-19.658676
1949.967756	-109.995331	81.072472	-19.541786
1949.971085	-109.235535	81.598480	-19.717121
1949.974418	-111.047340	81.773811	-20.009350
1949.977745	-111.514900	82.124489	-21.002922
