time (s)	magX	magY	magZ
8176.548394	-197.364700	202.057861	124.403847
8176.551727	-199.760941	204.804779	128.202789
8176.555072	-202.683212	207.727051	132.644653
8176.558396	-205.196365	209.655762	136.618927
8176.561730	-207.943298	212.461136	140.710114
8176.565066	-210.865570	214.448288	145.444183
8176.568439	-213.320282	217.136765	149.827576
8176.571753	-215.424301	219.182358	154.795441
8176.575128	-218.463470	222.338394	159.997101
8176.578445	-221.502625	224.617767	165.081818
8176.581732	-224.307999	226.955582	170.400330
8176.585068	-227.230270	229.001175	176.303314
8176.588402	-230.094086	231.455872	181.972534
8176.591722	-233.074814	234.085922	187.992401
8176.595056	-236.406189	236.832840	194.421387
8176.598398	-239.620697	239.287552	201.843964
8176.601310	-243.361191	241.683823	208.506714
8176.604636	-246.517227	244.430725	216.163055
8176.607971	-250.199295	246.534790	223.702515
8176.611327	-253.413773	249.983063	232.761536
8176.614632	-257.388092	252.203979	240.417877
8176.617969	-260.894806	254.600250	250.412048
8176.621294	-264.927521	256.470490	259.646393
8176.624677	-268.726501	259.626526	270.108124
8176.627972	-272.466980	261.496796	280.686737
8176.631303	-275.973694	262.899475	290.563995
8176.634635	-279.597321	265.354187	302.369965
8176.637962	-283.688507	267.341339	314.292816
8176.641297	-287.896545	269.036255	326.624786
8176.644632	-291.227966	270.614258	338.021606
8176.647970	-294.267090	272.075409	351.347137
8176.651304	-297.540039	273.302734	363.737549
8176.654670	-301.163635	274.705444	377.589111
8176.657961	-304.261261	275.640564	391.031586
8176.661299	-307.125092	275.815887	404.707794
8176.664631	-309.755127	276.809448	419.026886
8176.667966	-312.969604	277.160156	434.164215
8176.671291	-314.664520	276.809448	448.892487
8176.674633	-317.177673	276.634125	462.802460
8176.677966	-318.463501	276.108124	477.530670
8176.681294	-320.450623	275.699005	493.661591
8176.684633	-321.911774	274.588531	509.149628
8176.687964	-323.372894	273.828735	523.877869
8176.691288	-324.600250	272.309174	538.956787
8176.694643	-324.775574	270.789612	555.321472
8176.697992	-325.593811	268.393341	571.043274
8176.701290	-326.178253	265.704865	586.765076
8176.704635	-325.710693	263.367035	603.305115
8176.707962	-325.476929	260.853882	618.968445
8176.711292	-325.067810	257.171814	635.683838
8176.714626	-323.898895	252.963776	652.516113
8176.717956	-322.671539	248.171234	668.121033
8176.721290	-321.619537	243.612518	684.777954
8176.724627	-319.807709	238.703094	702.136169
8176.727956	-317.469910	232.566330	718.500916
8176.731287	-314.839874	226.488022	736.268311
8176.734627	-311.976044	219.357681	753.568115
8176.737960	-308.586212	211.584457	771.160156
8176.741309	-305.313263	203.285217	789.745789
8176.744620	-301.923431	194.401535	807.513184
8176.747958	-296.955566	184.348923	826.098755
8176.751285	-291.403290	174.120972	842.697266
8176.754615	-285.909424	163.133255	860.230896
8176.757948	-280.064880	151.561066	877.705994
8176.761299	-273.168335	139.755112	896.057861
8176.764617	-265.921112	126.897141	913.942200
8176.767952	-257.388092	113.805382	930.423767
8176.771289	-249.497940	100.070717	945.794922
8176.774618	-240.964920	85.985390	961.107605
8176.777950	-231.263000	71.432495	976.128113
8176.781289	-221.794846	56.412041	989.979553
8176.784654	-211.450027	41.391586	1003.538879
8176.787952	-199.760941	26.020454	1015.227966
8176.791283	-188.831665	10.941554	1026.741577
8176.794621	-177.201050	-4.838691	1036.852661
8176.797948	-164.050842	-21.495617	1046.320801
8176.801281	-151.660416	-36.457626	1054.678589
8176.804618	-139.386902	-51.711861	1062.159546
8176.807948	-125.476921	-66.440094	1067.244263
8176.811277	-112.151375	-81.343658	1071.335449
8176.814620	-97.949158	-96.247223	1076.186401
8176.817945	-84.565170	-109.923439	1078.115112
8176.821282	-71.122734	-123.774986	1080.160767
8176.824615	-57.797195	-137.217407	1079.576172
8176.827945	-43.828751	-150.367630	1078.232056
8176.831284	-30.853888	-162.758041	1076.887817
8176.834615	-17.411453	-175.148453	1073.731689
8176.837946	-4.962595	-186.954407	1069.757446
8176.841277	8.129165	-199.169495	1064.614136
8176.844616	21.630041	-210.274109	1059.295776
8176.847946	33.202225	-221.028061	1051.931519
8176.851279	45.358856	-231.606674	1044.041382
8176.854607	57.164818	-241.776154	1035.566895
8176.857979	68.444771	-250.718307	1025.748047
8176.861276	79.724724	-259.660431	1014.175964
8176.864607	91.004677	-268.953247	1003.655823
8176.867943	101.933952	-277.018707	990.505554
8176.871281	111.811218	-285.317932	977.998352
8176.874610	121.396255	-293.208069	963.971375
8176.877945	131.215088	-300.513733	948.658691
8176.881280	141.092361	-307.760956	932.761536
8176.884610	149.625366	-314.073059	917.332031
8176.887967	158.275284	-320.209808	899.856812
8176.891277	165.931625	-326.405029	882.498596
8176.894633	173.354187	-331.489777	865.374023
8176.897935	181.010529	-335.990082	846.087097
8176.901289	187.673294	-340.548798	828.085937
8176.904606	194.511398	-344.639954	808.389832
8176.907940	200.063705	-347.971375	789.044434
8176.911274	205.908249	-350.484497	769.874329
8176.914604	211.226761	-353.173004	749.710693
8176.917937	216.720642	-355.277039	729.780884
8176.921273	220.928711	-357.088837	710.143250
8176.924601	225.253647	-357.907074	689.921082
8176.927938	228.292816	-358.316193	670.283447
8176.931289	232.033325	-358.549988	651.873230
8176.934605	235.189362	-358.725311	633.053772
8176.937939	237.644073	-357.965515	613.007019
8176.941273	240.391006	-356.738159	596.057922
8176.944603	242.611923	-355.569275	576.946289
8176.947932	243.897720	-353.757446	559.529541
8176.951269	244.774414	-351.828766	542.288147
8176.954603	246.527756	-350.075378	525.222107
8176.957930	247.521347	-347.679138	508.623627
8176.961275	247.638214	-345.107513	492.784882
8176.964606	248.573349	-343.354187	477.822906
8176.967931	248.514908	-339.964325	462.860870
8176.971260	248.924042	-336.749847	449.184692
8176.974622	248.164246	-333.827576	434.748688
8176.977931	248.222687	-331.489777	420.429596
8176.981267	247.170654	-327.983032	407.337799
8176.984600	246.703094	-325.002319	394.947418
8176.987939	245.826431	-322.138519	382.673859
8176.991265	245.183533	-318.456451	371.627686
8176.994598	242.904160	-315.183502	359.587921
8176.997931	241.793701	-312.144348	348.834015
8177.001263	240.624786	-308.345398	338.196930
8177.004596	238.929855	-305.715363	326.975433
8177.007929	237.644073	-301.916443	317.390411
8177.011282	235.364700	-298.117462	306.636444
8177.014597	233.728241	-295.428986	296.466980
8177.017933	232.208649	-292.272949	287.466370
8177.021263	229.929276	-288.415558	277.998230
8177.024594	228.117477	-284.967285	268.588531
8177.028004	225.955002	-281.519012	259.471069
8177.031253	223.208069	-278.012268	250.645813
8177.034590	220.987152	-274.505554	241.820587
8177.037924	218.883102	-271.291077	232.936890
8177.041261	216.253082	-267.316772	225.338989
8177.044594	213.681473	-264.394501	216.922852
8177.047923	212.045013	-260.946228	209.091156
8177.051257	209.999420	-257.439514	201.727051
8177.054627	206.960266	-253.699005	194.596741
8177.057926	204.856232	-250.952072	187.174164
8177.061256	201.524857	-247.328461	180.277618
8177.064590	199.888382	-243.997070	174.023956
8177.067925	197.141434	-240.431900	168.004089
8177.071252	195.271194	-237.451187	161.633545
8177.074593	192.465820	-233.535355	155.905884
8177.077923	190.537109	-230.905319	150.412048
8177.081253	188.608429	-227.340149	144.801300
8177.084588	186.445953	-223.774979	139.774994
8177.087919	184.225021	-221.086502	134.573334
8177.091253	182.120987	-218.047333	130.306824
8177.094636	180.893631	-214.832855	126.566338
8177.097960	178.438934	-212.144363	121.364693
8177.101258	176.685562	-209.105194	117.857979
8177.104593	174.815323	-206.708939	114.526588
8177.107920	173.178848	-204.020462	109.850960
8177.111254	171.717712	-201.448853	107.220924
8177.114581	170.841034	-198.877258	104.941551
8177.119220	166.866745	-194.026306	98.804787
8177.122646	165.171829	-192.156052	96.174751
8177.125960	164.762726	-188.883118	93.720055
8177.129285	162.950912	-187.655762	90.973106
8177.132226	161.080673	-185.610168	88.576866
8177.135883	160.203979	-184.149033	86.531258
8177.139275	158.216843	-182.395676	84.193459
8177.142233	157.515503	-179.473404	82.089424
8177.145467	155.937469	-178.362946	80.160713
8177.148922	154.827011	-176.960266	77.998253
8177.152178	153.716553	-174.856216	76.069557
8177.155534	152.080078	-173.570419	73.965523
8177.158771	150.560501	-172.401520	71.803040
8177.162104	149.742264	-170.589722	70.341904
8177.165445	147.813568	-168.485687	68.471657
8177.168780	147.346008	-166.966095	66.601402
8177.172127	145.709534	-165.621857	63.854477
8177.175551	143.956161	-163.342484	62.568672
8177.178858	143.722382	-162.699585	60.523087
8177.182152	142.085922	-161.063126	59.178848
8177.185461	140.624786	-159.601990	57.483932
8177.188757	139.689651	-157.497955	55.613678
8177.192123	138.170074	-156.971939	53.626534
8177.195473	137.351837	-155.452362	52.340744
8177.198835	136.825836	-153.523666	50.938049
8177.202199	134.604904	-152.179428	48.950905
8177.205565	134.078903	-150.776733	48.132675
8177.208798	133.494446	-149.607834	45.677963
8177.212100	131.039749	-148.263580	45.093513
8177.215427	131.507309	-147.679138	42.989479
8177.218772	129.929291	-146.159546	42.405029
8177.222130	129.403275	-144.873764	41.820572
8177.225512	129.052612	-143.529526	41.177673
8177.228944	127.883698	-142.652832	40.008766
8177.231777	126.831673	-142.009933	39.482758
8177.235448	127.182350	-140.548798	38.255409
8177.238759	126.422562	-140.081238	37.904732
8177.242091	126.071884	-139.029236	36.911163
8177.245445	125.428986	-137.977203	36.969612
8177.248345	124.610756	-137.334305	36.151375
8177.251657	125.019875	-137.217407	35.742256
8177.255022	124.610756	-136.282288	35.742256
8177.258351	124.318527	-135.756287	34.982468
8177.261683	124.201630	-135.347168	34.164230
8177.264990	123.500290	-134.996490	33.930450
8177.268333	123.324951	-134.178253	34.339569
8177.271689	123.441849	-134.002930	33.930450
8177.274996	123.383400	-133.301575	34.047340
8177.278326	123.383400	-133.126251	34.281120
8177.281663	123.558739	-133.652252	33.813560
8177.284989	123.149620	-133.009354	32.586205
8177.288342	122.915840	-132.775574	32.936874
8177.291690	123.032722	-131.606659	32.819984
8177.295019	122.740509	-132.132675	33.229111
8177.298381	123.149620	-131.489777	33.170662
8177.301659	123.500290	-131.898895	32.703094
8177.304985	123.208069	-131.782013	32.761543
8177.308337	122.915840	-131.606659	32.177094
8177.311664	123.149620	-131.255997	32.761543
8177.315036	123.091171	-130.496201	32.703094
8177.318323	123.324951	-130.554657	32.527763
8177.321665	122.798943	-130.963760	32.060204
8177.324993	122.798943	-130.729980	32.644653
8177.328344	123.324951	-130.203979	32.177094
8177.331721	123.324951	-130.262421	31.826416
8177.335058	123.734070	-130.496201	31.358856
8177.338363	123.675629	-129.970200	31.125076
8177.341651	123.967850	-130.028641	31.767967
8177.344993	123.324951	-129.911743	31.066628
8177.348316	123.734070	-129.619522	31.300407
8177.351225	123.967850	-129.794861	31.358856
8177.354557	123.792519	-130.613083	31.709526
8177.357928	124.669197	-130.087082	31.008186
8177.361227	124.552307	-130.028641	31.592636
8177.364559	125.253654	-130.379303	31.534187
8177.367894	125.545883	-130.613083	32.060204
8177.371225	126.422562	-130.437759	32.118645
8177.374552	126.597893	-131.139099	32.527763
8177.377887	127.007004	-130.613083	33.287552
8177.381226	127.825249	-131.197540	33.462891
8177.384561	128.994156	-131.431335	33.872002
8177.387893	129.111038	-132.600235	34.982468
8177.391254	130.513733	-133.009354	35.508476
8177.394559	131.331970	-134.119827	35.976036
8177.397896	132.442429	-134.645813	36.911163
8177.401265	133.377548	-134.821167	37.320282
8177.404554	134.838699	-135.405609	38.489189
8177.407892	135.656937	-135.814728	38.839859
8177.411221	136.299835	-136.808304	40.300995
8177.414557	137.760971	-138.152542	41.937462
8177.417888	138.754532	-138.561661	42.463470
8177.421221	140.098785	-138.853882	43.807716
8177.424553	141.267685	-140.256577	45.035065
8177.427888	142.495041	-140.782578	46.788422
8177.431221	144.014618	-142.185272	47.665115
8177.434552	145.066635	-142.477493	48.424896
8177.437889	146.410873	-144.113968	49.827583
8177.441218	147.579788	-145.165985	51.697830
8177.444580	148.982468	-146.042664	52.574524
8177.447884	150.151382	-147.211578	54.035645
8177.451217	151.670959	-147.854462	55.613678
8177.454552	153.073654	-148.555817	56.899467
8177.457885	154.534775	-149.900070	58.477501
8177.461215	156.112808	-150.835190	60.406189
8177.464576	157.573929	-152.120987	61.165985
8177.467886	159.093521	-153.173004	62.393341
8177.471216	160.320877	-153.991226	64.497368
8177.474552	161.489777	-154.984802	65.724724
8177.477881	163.243134	-156.153717	67.127411
8177.481216	164.704269	-157.614853	69.289894
8177.484548	166.516068	-159.075989	71.686142
8177.487914	168.035660	-159.543549	72.738167
8177.491213	169.087677	-161.004669	74.433083
8177.494549	171.074814	-162.407364	75.777321
8177.497882	173.646408	-163.868500	76.887779
8177.501218	175.867340	-164.862076	79.284050
8177.504545	177.796036	-166.440094	82.206322
8177.507880	179.257156	-168.427231	84.777916
8177.511211	181.828751	-169.187027	86.589714
8177.514540	183.582123	-170.648148	89.687325
8177.517879	186.270615	-172.109283	92.434242
8177.521214	188.842209	-173.570419	95.940971
8177.524549	191.238464	-175.323776	99.798363
8177.527908	194.102280	-177.018692	102.077736
8177.531240	197.024551	-178.713623	105.584450
8177.534539	199.771484	-180.525421	109.500298
8177.537878	202.985977	-181.986557	113.065468
8177.541209	205.557587	-183.973709	117.390419
8177.544548	208.421387	-185.902405	121.598473
8177.547873	211.811234	-187.947983	126.917015
8177.551206	214.441269	-189.409119	131.358856
8177.554540	217.421982	-191.805374	136.852722
8177.557877	221.513153	-193.909409	142.755707
8177.561211	224.201645	-195.896545	147.782013
8177.564540	227.416122	-198.175919	153.801880
8177.567874	231.331985	-199.637054	158.945068
8177.571205	234.546463	-202.033310	164.672729
8177.574560	237.702515	-204.312683	170.926361
8177.577871	241.209244	-206.358276	177.121582
8177.581209	244.715973	-208.170074	183.141418
8177.584538	247.930450	-210.040329	189.336639
8177.587865	251.437180	-212.378143	195.122711
8177.591199	254.534790	-214.189957	203.129730
8177.594536	258.333710	-215.826416	209.850952
8177.597871	262.191101	-217.871994	216.864380
8177.601229	266.048523	-219.508484	223.585602
8177.604537	269.029205	-222.372284	231.534180
8177.607864	272.243713	-223.658112	238.606079
8177.611200	276.276428	-225.762131	246.554626
8177.614534	279.841583	-227.632370	255.672119
8177.617892	283.231415	-229.561066	263.562225
8177.621199	287.264160	-231.080643	271.452362
8177.624539	290.829315	-232.892456	280.160706
8177.627873	294.628296	-233.944489	288.752167
8177.631201	298.602570	-235.580948	297.518982
8177.634533	302.459961	-236.983627	307.513153
8177.637866	305.849792	-238.678543	317.682617
8177.641200	309.707153	-239.496780	327.735229
8177.644534	313.973694	-240.665695	338.196930
8177.647863	317.421967	-241.367020	349.009338
8177.651195	321.863831	-242.185272	360.523041
8177.654534	324.610748	-243.763306	372.095276
8177.657871	328.760376	-244.055527	384.251892
8177.661192	333.260651	-244.523087	397.343658
8177.664537	336.416687	-245.575089	410.902954
8177.667867	340.800110	-245.049088	425.748077
8177.671193	344.189941	-245.399750	439.541229
8177.674534	347.988892	-245.107529	454.269440
8177.677892	351.203369	-244.347763	468.705414
8177.681198	354.943878	-243.704834	484.836334
8177.684530	358.567505	-242.945068	501.317963
8177.687862	361.139099	-242.126816	517.624268
8177.691209	363.652222	-240.139694	534.047363
8177.694532	366.574493	-238.795441	551.171814
8177.697860	368.678558	-236.574524	567.828735
8177.701193	369.847443	-234.645813	585.362366
8177.704533	372.360596	-231.840439	602.779114
8177.707860	373.997070	-228.567505	620.604919
8177.711196	374.406189	-225.762131	638.021667
8177.714523	375.691986	-222.547623	656.081238
8177.717856	375.691986	-218.339554	673.848633
8177.721207	375.282867	-214.306824	690.271790
8177.724528	374.581543	-209.748093	708.389832
8177.727859	374.347748	-204.955582	725.397461
8177.731195	373.003479	-200.046173	741.469910
8177.734539	370.607239	-194.493866	759.061951
8177.737851	369.263000	-188.357101	775.601990
8177.741190	366.749847	-182.804794	791.849854
8177.744520	364.879578	-175.382233	808.039124
8177.747856	361.139099	-169.128586	823.644104
8177.751186	357.866150	-162.173584	838.839844
8177.754517	354.184082	-154.458786	853.158997
8177.757855	349.742249	-146.393326	867.069031
8177.761189	344.657501	-138.152542	880.920532
8177.764535	340.215668	-128.509064	894.129211
8177.767854	335.189331	-119.859146	908.097595
8177.771188	328.994141	-110.683220	920.020447
8177.774516	322.740479	-100.922852	931.592590
8177.777850	316.369934	-90.285797	943.573914
8177.781179	308.713593	-79.882523	952.983643
8177.784521	301.349487	-68.427238	964.555786
8177.787853	293.050232	-56.913502	972.445984
8177.791183	284.634125	-44.873756	982.206360
8177.794516	275.867310	-32.600231	989.570496
8177.797887	266.048523	-19.917591	996.291687
8177.801213	256.112793	-5.832262	1001.785583
8177.804518	245.884872	7.785506	1006.811829
8177.807870	235.364700	21.227940	1011.545959
8177.811183	224.026321	36.073055	1014.935730
8177.814518	212.687912	50.333725	1017.039734
8177.817846	201.349503	64.886612	1018.208679
8177.821179	187.848633	79.088844	1019.026917
8177.824512	175.984222	94.050850	1017.857971
8177.827848	162.775574	108.895973	1016.455261
8177.831187	149.566925	123.799530	1013.708313
8177.834516	136.475159	138.761551	1008.623596
8177.837845	123.032722	152.788422	1005.175354
8177.841184	109.239624	167.049088	998.921692
8177.844527	96.264755	180.608414	992.551208
8177.847843	82.939217	194.284637	985.070129
8177.851177	69.847458	207.551727	975.777405
8177.854514	56.405029	220.585037	967.361206
8177.857846	43.839272	232.624771	957.308655
8177.861184	31.215078	245.073639	946.729980
8177.864510	18.824665	256.119812	935.859192
8177.867848	5.849796	267.282867	924.813049
8177.871176	-5.605494	277.452393	912.422607
8177.874509	-16.827002	287.738770	898.921753
8177.877838	-27.931616	297.323792	885.420837
8177.882473	-48.445938	314.389832	860.464600
8177.885880	-58.732323	322.104614	846.203979
8177.888863	-67.791351	329.585632	832.294067
8177.892536	-76.499710	336.365265	817.565796
8177.895519	-85.208061	342.443604	804.006409
8177.899114	-93.682648	349.164825	789.570496
8177.902475	-101.338982	355.009338	775.192871
8177.905859	-109.053764	359.217407	759.938660
8177.909195	-117.002342	363.893036	745.970215
8177.912120	-123.431328	367.925781	730.248413
8177.915429	-130.152542	372.309174	714.935730
8177.918715	-136.581528	375.932800	700.149048
8177.922469	-142.192291	378.270599	685.829956
8177.925399	-148.212158	381.075989	670.283447
8177.928715	-153.881348	383.063141	656.139709
8177.932068	-158.440079	385.225616	640.067261
8177.935430	-163.057266	386.452942	624.345459
8177.938775	-168.025131	387.797211	610.143250
8177.942093	-171.648727	388.030975	594.830505
8177.945347	-176.090576	388.732330	578.758057
8177.948682	-180.006424	388.732330	563.737610
8177.952019	-183.571594	388.089417	548.600281
8177.955393	-186.786087	388.147888	533.287598
8177.958706	-189.182327	387.037415	519.202209
8177.962096	-191.637039	385.985382	503.421967
8177.965467	-193.974854	384.348907	488.869049
8177.968721	-196.663361	382.595581	475.192841
8177.972012	-198.241379	380.491516	461.458160
