time (s)	magX	magY	magZ
5847.954451	220.505569	-159.431900	-1486.717163
5847.957783	206.186447	-146.164810	-1493.613770
5847.961115	191.516663	-132.254822	-1499.458252
5847.964449	176.028641	-118.870842	-1503.900024
5847.967809	160.774399	-105.136177	-1506.588623
5847.971114	144.234375	-90.933960	-1509.160156
5847.974446	128.746338	-76.673286	-1511.147339
5847.977781	111.914085	-61.945061	-1510.971924
5847.981115	95.490944	-46.807716	-1511.147339
5847.984446	78.191124	-32.663940	-1509.043213
5847.987782	60.891289	-17.818821	-1507.056152
5847.991108	43.299240	-2.681474	-1502.614380
5847.994440	26.642315	11.929865	-1498.873779
5847.997778	8.290474	25.781416	-1493.613770
5848.001107	-8.658679	40.334305	-1486.541870
5848.004448	-26.075394	54.945641	-1479.177734
5848.007776	-43.082996	68.563408	-1471.112305
5848.011125	-60.207485	82.356514	-1462.286987
5848.014442	-76.221504	95.156052	-1452.059082
5848.017804	-92.527756	109.124481	-1443.526001
5848.021107	-108.132668	121.807121	-1432.479858
5848.024443	-123.737564	134.548218	-1420.673828
5848.027778	-138.758041	146.938644	-1409.978394
5848.031111	-152.843369	158.569260	-1397.763428
5848.034439	-167.045578	171.777908	-1384.028687
5848.037772	-180.897141	183.583878	-1371.287598
5848.041105	-193.696671	195.214508	-1356.559448
5848.044436	-206.613098	206.436005	-1343.058472
5848.047772	-218.711273	217.131516	-1328.038086
5848.051104	-230.283463	228.294556	-1314.011108
5848.054470	-240.920502	239.691422	-1299.341309
5848.057765	-251.265335	249.802475	-1282.859741
5848.061106	-262.369965	260.790161	-1267.722412
5848.064432	-272.130341	270.667450	-1252.000610
5848.067768	-281.189362	280.953827	-1235.460571
5848.071104	-290.832855	291.766235	-1219.037476
5848.074436	-299.132111	300.766785	-1201.854492
5848.077769	-308.015808	310.234924	-1185.022339
5848.081097	-315.672150	319.293976	-1167.079468
5848.084487	-323.796021	328.469910	-1148.961426
5848.087773	-330.926361	336.769135	-1132.129272
5848.091100	-338.465820	344.600800	-1113.894165
5848.094430	-345.420807	352.724701	-1096.652954
5848.097782	-352.025146	360.322601	-1077.482788
5848.101094	-358.687897	367.803589	-1059.773804
5848.104433	-364.766235	374.875488	-1040.954346
5848.107772	-370.026306	380.544678	-1023.362305
5848.111103	-376.104614	385.863220	-1004.426086
5848.114436	-381.014038	391.473969	-986.775574
5848.117769	-386.274109	396.792511	-969.008118
5848.121101	-391.300415	401.000549	-951.123840
5848.124434	-394.748718	405.150177	-934.116211
5848.127760	-399.365875	409.066010	-916.407349
5848.131101	-403.223267	411.696045	-900.334900
5848.134430	-406.905334	414.735229	-882.742859
5848.137764	-410.412048	417.189941	-866.202820
5848.141100	-413.451233	419.293976	-849.604309
5848.144429	-415.964355	420.579773	-833.590271
5848.147763	-418.185303	421.807098	-818.335999
5848.151109	-420.523102	423.092896	-803.140198
5848.154427	-422.627136	424.261810	-787.710693
5848.157762	-424.322052	424.787811	-773.391541
5848.161098	-425.900055	424.904724	-759.832275
5848.164424	-427.068970	426.307404	-745.688477
5848.167756	-427.828766	426.365845	-732.655151
5848.171124	-427.945648	426.015198	-718.978943
5848.174426	-428.530090	426.132080	-706.237854
5848.177758	-428.939209	425.664520	-694.139648
5848.181094	-428.588562	425.313873	-681.164795
5848.184437	-428.471680	425.313873	-668.482117
5848.187754	-428.647034	424.963135	-657.494446
5848.191096	-427.536560	424.670929	-645.688477
5848.194422	-426.601440	424.144928	-634.291626
5848.197757	-425.490967	424.086487	-622.251831
5848.201089	-424.906525	423.268280	-611.205688
5848.204421	-423.562256	422.800690	-599.808838
5848.207759	-422.159546	421.281097	-588.704224
5848.211087	-419.938629	420.988892	-579.002319
5848.214437	-419.061981	419.878448	-567.897705
5848.217806	-417.425507	418.651062	-558.137329
5848.221087	-415.613678	418.241943	-548.260071
5848.224421	-413.743439	416.839264	-537.798340
5848.227765	-412.516083	415.611877	-526.985962
5848.231083	-409.944519	414.326111	-517.926941
5848.234425	-408.424927	413.040314	-507.757477
5848.237750	-406.730011	411.871399	-497.295746
5848.241082	-404.742828	409.825806	-488.119843
5848.244445	-402.463470	408.014008	-479.586792
5848.247753	-400.943909	406.026886	-470.352417
5848.251083	-399.599670	404.215057	-461.644073
5848.254420	-397.670959	402.753937	-452.292816
5848.257763	-396.151367	399.948547	-443.876678
5848.261085	-394.047333	397.844513	-436.337219
5848.264418	-392.410889	395.272919	-428.797791
5848.267750	-391.066620	393.168884	-421.199890
5848.271081	-389.547028	391.123291	-413.543549
5848.274415	-387.501465	388.610168	-406.004089
5848.277750	-385.806549	386.623016	-398.932220
5848.281076	-383.760986	384.168304	-393.146118
5848.284417	-382.708954	381.830505	-386.950928
5848.287786	-381.130920	379.083557	-380.054352
5848.291084	-379.728241	377.154877	-374.151367
5848.294412	-377.039734	375.459961	-369.358856
5848.297745	-376.046173	373.180573	-363.572754
5848.301097	-374.059021	370.667450	-357.962006
5848.304413	-373.065460	369.147858	-352.234344
5848.307744	-371.545898	367.277618	-348.201660
5848.311080	-369.617187	365.641144	-343.701355
5848.314410	-367.863831	363.127991	-339.201080
5848.317750	-366.519592	362.134399	-334.408539
5848.321077	-364.590881	360.497925	-330.492706
5848.324411	-362.428436	358.978363	-326.401520
5848.327749	-360.675049	357.049652	-322.953247
5848.331101	-359.506165	356.348328	-319.563416
5848.334411	-358.337250	354.185852	-314.654022
5848.337747	-355.824097	353.367615	-311.381073
5848.341074	-355.064301	352.432495	-308.166565
5848.344410	-353.077148	350.679108	-303.900055
5848.347745	-350.914673	349.919312	-301.620697
5848.351079	-349.161316	348.750427	-297.821747
5848.354426	-347.992432	347.756866	-295.483948
5848.357758	-346.297516	345.945068	-291.509644
5848.361075	-343.550568	344.951477	-288.470459
5848.364408	-342.206329	343.782562	-286.249542
5848.367736	-340.511414	342.847443	-282.801270
5848.371075	-339.167175	341.327850	-279.528351
5848.374429	-337.589142	339.983643	-276.255402
5848.377739	-336.712463	338.756287	-272.924011
5848.381071	-335.543549	337.470459	-270.586182
5848.384401	-334.023987	336.243103	-267.956177
5848.387736	-333.147278	335.249542	-264.858582
5848.391068	-332.212158	333.554626	-262.520752
5848.394399	-330.283478	332.619507	-260.767365
5848.397737	-329.699005	331.158386	-258.780243
5848.401074	-328.471649	330.573914	-255.916428
5848.405765	-327.536530	328.177673	-251.474579
5848.409112	-326.309174	326.307434	-249.896561
5848.412035	-326.426086	325.196930	-248.260086
5848.415720	-325.724731	324.612518	-246.740509
5848.419051	-324.906494	323.385162	-245.688492
5848.422424	-324.555817	322.625366	-244.052032
5848.425322	-323.971375	322.099365	-243.233780
5848.428663	-323.211578	321.807129	-242.357101
5848.431991	-323.153137	321.047333	-241.363541
5848.435287	-323.036255	320.345978	-240.662186
5848.438582	-323.270050	319.703094	-240.136185
5848.441921	-322.977814	319.586182	-239.376404
5848.445260	-322.977814	319.177094	-239.142624
5848.448644	-321.925781	318.066620	-238.967270
5848.452021	-321.867340	318.592621	-239.434830
5848.455380	-321.049103	318.651062	-238.616608
5848.458642	-321.049103	318.358826	-239.142624
5848.461933	-321.049103	318.417297	-239.434830
5848.465247	-320.347778	318.767944	-238.791931
5848.468578	-320.581543	319.293976	-238.850388
5848.471940	-319.997101	319.469299	-238.499710
5848.475305	-319.704865	319.878418	-239.843964
5848.478666	-319.529541	319.586182	-239.902405
5848.481986	-320.113983	320.404449	-240.486862
5848.485285	-320.172424	320.930450	-239.727066
5848.488579	-319.295746	320.579773	-240.077744
5848.491899	-319.529541	320.579773	-240.077744
5848.495294	-319.704865	321.924011	-240.428406
5848.498611	-319.763306	321.631805	-241.480423
5848.502000	-319.880188	322.625366	-242.240204
5848.505350	-320.230865	323.092926	-241.246643
5848.508658	-319.938629	323.677368	-242.123322
5848.511908	-320.347778	323.852722	-242.707779
5848.515237	-320.347778	323.735809	-243.233780
5848.518585	-321.165985	324.378723	-243.642899
5848.521952	-321.925781	324.729370	-244.168915
5848.525266	-321.925781	325.313843	-244.694916
5848.528174	-322.218018	325.196930	-246.389832
5848.531505	-323.036255	325.547638	-247.500290
5848.534841	-324.205170	326.015198	-248.669205
5848.538187	-324.672729	327.067200	-249.136765
5848.541527	-325.783173	327.242554	-251.240799
5848.544809	-327.010529	327.710114	-252.409698
5848.548169	-327.302765	328.119202	-254.572189
5848.551484	-328.647003	328.995911	-257.085327
5848.554817	-329.523682	329.346558	-258.078888
5848.558144	-330.400360	330.281677	-260.241364
5848.561477	-331.919922	331.099915	-262.988312
5848.564848	-333.497986	332.210388	-264.449432
5848.568168	-333.790192	333.087067	-267.313263
5848.571555	-335.309753	334.372864	-270.060181
5848.574808	-336.712463	335.249542	-273.333130
5848.578166	-338.348938	336.476898	-274.852722
5848.581483	-338.758026	337.704254	-278.476318
5848.584856	-340.336060	339.808289	-281.866150
5848.588143	-341.797211	341.327850	-283.853302
5848.591477	-342.790771	342.964355	-287.944458
5848.594813	-343.901245	344.542358	-290.691406
5848.598166	-345.070160	345.769714	-294.022797
5848.601529	-345.946838	347.815308	-297.120392
5848.604830	-348.284637	349.919312	-301.036224
5848.608172	-349.862671	351.380463	-304.133820
5848.611468	-350.447113	353.542969	-308.341888
5848.614814	-352.609589	355.471649	-312.199310
5848.618133	-353.194061	357.575684	-316.232025
5848.621478	-354.888977	358.861481	-320.147858
5848.624807	-356.057892	361.082397	-324.297485
5848.627729	-357.402100	362.835754	-328.914673
5848.631047	-358.395691	365.290466	-332.947388
5848.634380	-359.739929	366.050262	-337.272369
5848.637714	-361.668640	368.972534	-341.188202
5848.641050	-362.545288	370.375214	-346.039185
5848.644375	-364.707794	372.420807	-350.247223
5848.647716	-365.584473	373.881927	-355.273529
5848.651102	-366.636505	376.278198	-360.124481
5848.654383	-369.032745	377.447083	-365.384583
5848.657745	-371.078339	379.726471	-370.644653
5848.661041	-373.065460	380.661591	-375.554047
5848.664373	-374.175934	382.707184	-381.223267
5848.667711	-376.630646	383.583832	-386.658691
5848.671062	-378.091766	385.629456	-392.795441
5848.674372	-380.897156	387.967255	-398.464661
5848.677707	-382.475159	389.136169	-405.010529
5848.681037	-385.105194	390.714172	-410.329041
5848.684378	-386.683228	392.526001	-417.985382
5848.687709	-388.787292	394.162476	-424.355927
5848.691040	-391.241943	396.208069	-430.726471
5848.694372	-393.287537	397.610779	-439.376404
5848.697708	-395.099365	399.130310	-446.448273
5848.701045	-397.028076	400.474548	-454.747528
5848.704373	-399.190552	402.695465	-462.579193
5848.707699	-400.943909	404.565735	-470.294006
5848.711038	-402.405060	406.435974	-479.352997
5848.714377	-403.924622	408.189362	-487.769135
5848.717731	-405.561096	409.650482	-496.652832
5848.721044	-407.548218	412.280518	-505.185852
5848.724375	-408.775604	413.916962	-514.244873
5848.727700	-409.944519	415.670349	-524.297485
5848.731070	-411.347168	417.832855	-534.992981
5848.734372	-412.808289	419.177063	-545.220947
5848.737700	-413.392761	421.514893	-555.039734
5848.741040	-414.327881	423.618958	-564.916992
5848.744394	-414.737000	424.963135	-575.320251
5848.747702	-415.555267	426.950317	-586.015747
5848.751038	-416.315063	428.937439	-597.120422
5848.754371	-416.665710	430.164825	-607.523621
5848.757701	-416.899475	432.151947	-618.628296
5848.761031	-417.483917	433.087067	-629.615967
5848.764369	-417.074799	434.139069	-641.363464
5848.767701	-418.009918	435.483307	-651.474548
5848.771035	-417.659271	435.950897	-663.748108
5848.774395	-417.308594	436.710693	-675.144897
5848.777698	-417.951508	436.593781	-687.359985
5848.781032	-418.243713	436.769104	-699.107544
5848.784412	-417.834595	437.412018	-710.562805
5848.787708	-418.009918	437.587372	-722.544128
5848.791030	-417.893066	437.470490	-735.752747
5848.794366	-417.308594	436.769104	-748.786072
5848.797700	-416.957916	436.243103	-761.877808
5848.801030	-416.665710	435.833984	-774.560486
5848.804361	-415.672150	434.606659	-787.769104
5848.807691	-415.146149	433.320862	-801.153076
5848.811028	-414.035675	431.158356	-814.537109
5848.814366	-413.451233	429.171234	-829.031555
5848.817710	-412.165436	428.002319	-843.526001
5848.821028	-410.704254	425.781403	-858.078918
5848.824365	-409.184723	423.151367	-873.216187
5848.827687	-406.730011	419.995300	-887.593811
5848.831023	-404.275299	416.430145	-903.315613
5848.834357	-401.177673	413.507904	-918.686707
5848.837690	-398.547638	410.234924	-934.057861
5848.841026	-395.099365	407.429565	-949.370544
5848.844357	-392.001740	403.630585	-965.209167
5848.847689	-387.676788	398.370514	-982.099854
5848.851036	-383.760986	394.746918	-997.471008
5848.854391	-378.910004	390.655762	-1013.075989
5848.857693	-373.883698	385.512543	-1029.499146
5848.861047	-368.331390	381.479828	-1046.097534
5848.864351	-361.960876	376.395081	-1063.105225
5848.867694	-355.882538	371.485657	-1078.417847
5848.871026	-349.044434	365.699585	-1095.191650
5848.874359	-341.738739	360.381073	-1109.744629
5848.877685	-334.725311	353.776733	-1126.343140
5848.881018	-326.718323	348.049072	-1142.649414
5848.884353	-319.061981	341.269440	-1157.845093
5848.887690	-311.054932	333.963745	-1173.216309
5848.891020	-302.872620	327.885437	-1188.412109
5848.894353	-294.222687	320.696655	-1202.964966
5848.897704	-284.170074	313.390991	-1218.219238
5848.901017	-275.929291	305.033295	-1233.531860
5848.904357	-265.993561	296.909424	-1247.617187
5848.907683	-256.993011	288.960815	-1260.708984
5848.911014	-247.291061	279.551117	-1274.735840
5848.914380	-237.296906	270.199890	-1289.347168
5848.917686	-227.653412	261.257721	-1302.146729
5848.921022	-217.893036	251.906479	-1315.355469
5848.924350	-207.548218	241.853897	-1328.038086
5848.927689	-197.378723	231.158401	-1342.064941
5848.931015	-187.150787	221.281113	-1354.981323
5848.934347	-176.396851	210.644073	-1366.787231
5848.937689	-165.058441	199.188782	-1379.177734
5848.941049	-154.479828	188.084167	-1390.749878
5848.944347	-142.440094	176.395096	-1401.737671
5848.947684	-131.101685	164.355362	-1412.842163
5848.951015	-120.055511	151.614273	-1422.076660
5848.954351	-107.665108	139.925186	-1433.298096
5848.957686	-95.625366	127.359444	-1442.532471
5848.961018	-83.527176	115.202797	-1450.305664
5848.964346	-70.318527	102.052597	-1458.955566
5848.967681	-57.928112	90.246628	-1466.787231
5848.971013	-44.485683	77.213326	-1473.859131
5848.974349	-30.751022	65.232025	-1480.521973
5848.977675	-17.600819	52.315598	-1485.665161
5848.981054	-4.509059	40.158974	-1492.854004
5848.984353	8.933372	28.294565	-1495.776245
5848.987676	24.246056	16.196375	-1499.984253
5848.991018	38.506721	4.741087	-1503.198730
5848.994344	52.475159	-7.181766	-1505.068970
5848.997676	65.976036	-20.156635	-1506.120972
5849.001011	80.236702	-31.436588	-1507.640625
5849.004344	94.672714	-41.898308	-1508.809448
5849.007683	109.108711	-52.710693	-1508.458862
5849.011005	123.135590	-63.756866	-1507.114624
5849.014356	137.279373	-74.510818	-1505.478149
5849.017673	150.780258	-83.978958	-1503.724731
5849.021006	164.456467	-94.791351	-1501.036255
5849.024342	177.372894	-104.376389	-1497.354248
5849.027680	190.230865	-114.779663	-1492.912476
5849.031003	203.264175	-124.656929	-1488.236694
5849.034340	215.420807	-133.949738	-1482.450562
5849.037671	227.694336	-143.885437	-1476.723022
5849.041005	239.734070	-152.710693	-1469.884888
5849.044359	250.663361	-161.945053	-1462.696045
5849.047677	261.884857	-171.237869	-1455.332031
5849.051000	271.937439	-180.121552	-1447.617187
5849.054340	282.749847	-188.829910	-1439.317993
5849.057674	292.568665	-196.778488	-1429.031616
5849.060999	301.978363	-205.545288	-1421.667480
5849.064340	311.797180	-214.195206	-1411.439575
5849.067673	320.622406	-221.851547	-1401.503906
5849.071004	328.980103	-229.449448	-1391.217407
5849.074334	337.220917	-237.514908	-1381.223267
5849.077669	344.994141	-245.229675	-1368.891357
5849.080999	352.825836	-252.184677	-1357.962036
5849.084333	359.839264	-258.613678	-1345.513184
5849.087671	367.670929	-265.802460	-1332.889038
5849.091002	374.742828	-271.822327	-1320.849243
5849.094334	381.580933	-278.251343	-1307.815918
5849.097669	388.302155	-284.563416	-1295.016357
5849.101001	394.088257	-289.765076	-1281.457031
5849.104332	400.751007	-295.492706	-1266.845703
5849.107668	405.894196	-300.402100	-1253.520264
5849.111000	411.855621	-305.077728	-1239.727173
5849.114326	416.881927	-309.753357	-1225.407959
5849.117698	422.025146	-313.552338	-1210.796631
5849.120998	427.343628	-317.292816	-1196.068359
5849.124362	432.428375	-321.208649	-1179.995972
5849.127666	437.630005	-324.481598	-1164.741699
5849.131001	441.662750	-327.520782	-1150.188843
5849.134336	445.286377	-330.209259	-1134.291626
5849.137667	449.494446	-332.313263	-1117.927002
5849.140993	453.468719	-334.826416	-1103.490967
5849.144326	457.150757	-336.696686	-1088.119873
5849.147659	460.014618	-339.502075	-1072.924072
5849.152372	465.917572	-341.606079	-1043.233765
5849.155686	468.722931	-343.008789	-1028.330200
5849.158642	471.119232	-344.762115	-1013.426636
5849.162346	472.405029	-346.106384	-998.873779
5849.165659	475.093475	-347.450623	-984.437744
5849.168999	476.145538	-347.859741	-970.878357
5849.172359	478.074188	-348.677979	-955.741089
5849.175697	479.009308	-350.197540	-942.064819
5849.178600	479.827576	-350.665100	-927.862610
5849.181906	480.704224	-351.424896	-914.595581
5849.185281	481.171814	-352.184692	-902.555786
5849.188519	481.230286	-352.769165	-888.295166
5849.191827	481.464020	-353.645813	-874.852722
5849.195171	481.873169	-353.587372	-861.994690
5849.198534	480.938019	-353.879608	-848.902954
5849.201857	480.587372	-355.048523	-837.681458
5849.205250	480.295166	-355.165405	-824.998840
5849.208598	479.944458	-355.925201	-813.718872
5849.211876	478.541779	-355.574524	-802.205078
5849.215170	477.548187	-356.100525	-789.873108
5849.218525	476.846863	-356.158997	-777.774963
5849.221864	475.853271	-356.801880	-766.436523
5849.225192	475.677948	-356.568085	-755.857971
5849.228567	473.281677	-356.158997	-744.928650
5849.231920	472.755707	-355.749878	-734.466919
5849.235271	471.411438	-355.048523	-723.187012
5849.238499	470.651642	-354.756287	-712.491455
5849.241844	469.248993	-354.464081	-701.737549
5849.245159	467.612488	-353.821167	-691.275818
5849.248528	466.443604	-353.353607	-680.872559
5849.251865	465.274689	-352.126251	-671.229065
5849.255279	464.222656	-351.950928	-661.527161
5849.258572	462.703094	-351.249573	-652.292786
5849.261862	461.709534	-349.496216	-642.883057
5849.265172	460.482147	-348.151978	-634.291626
5849.268498	459.021027	-346.924622	-624.414368
5849.271855	457.910553	-345.580383	-615.355286
5849.275188	456.741638	-344.703705	-607.056030
5849.278096	455.631195	-343.300995	-598.698364
5849.281430	454.170044	-342.073639	-589.697815
5849.284770	452.942719	-340.846283	-582.450623
5849.288132	452.007599	-339.560516	-573.800659
5849.291412	451.540009	-338.157806	-566.611877
5849.294750	449.786682	-337.164246	-559.715332
5849.298100	448.150177	-336.404449	-552.701904
5849.301398	446.104584	-334.592651	-545.746948
5849.304738	444.935669	-333.657532	-539.025696
5849.308076	444.234344	-331.845703	-531.369385
5849.311400	442.773224	-331.027466	-525.641724
5849.314777	441.136780	-329.800110	-520.030945
5849.318097	439.500244	-329.332550	-512.666870
5849.321426	437.922272	-327.929871	-506.530090
5849.324738	436.344208	-327.228546	-501.737579
5849.328103	435.409088	-326.819427	-496.360626
5849.331400	433.947968	-326.118073	-490.925201
