time (s)	magX	magY	magZ
5779.041476	228.578613	-72.580368	-79.156052
5779.044802	226.240799	-71.469902	-76.467560
5779.048135	223.376984	-70.885445	-73.720627
5779.051490	220.279373	-70.184105	-71.850380
5779.054805	217.240204	-69.307419	-68.752777
5779.058138	214.376404	-68.547638	-66.414963
5779.061467	212.506149	-68.255402	-64.486267
5779.064817	209.466980	-67.261841	-62.382233
5779.068132	206.720047	-66.326714	-60.395088
5779.071464	204.440689	-65.742256	-58.524837
5779.074806	201.810638	-64.982468	-56.187023
5779.078132	199.998840	-64.339569	-54.433662
5779.081465	197.544128	-63.696671	-51.686733
5779.084807	195.381653	-62.995323	-49.641144
5779.088165	193.920532	-62.586205	-47.654003
5779.091468	191.348923	-61.534195	-45.783752
5779.094820	189.244888	-61.300407	-44.381062
5779.098133	187.023972	-60.774399	-42.393921
5779.101466	185.153717	-60.365288	-40.932785
5779.104797	183.225021	-59.663940	-40.056107
5779.108131	181.237869	-58.904152	-38.945644
5779.111463	179.426071	-58.553482	-37.426067
5779.114800	178.081833	-58.436592	-36.490940
5779.118128	176.094681	-57.793694	-35.263588
5779.121463	174.984222	-57.267685	-33.685562
5779.124801	173.581543	-56.858559	-33.276443
5779.128132	172.763290	-56.566338	-32.049095
5779.131491	171.068390	-55.981880	-31.113968
5779.134791	169.081238	-55.981880	-30.178843
5779.138143	168.087662	-54.988312	-29.068380
5779.141467	166.918762	-55.046753	-28.483927
5779.144792	165.808304	-54.170074	-27.607246
5779.148125	164.873184	-54.111633	-26.847456
5779.151458	163.645828	-53.585625	-25.795441
5779.154796	162.886032	-52.884277	-24.860315
5779.158128	161.308014	-52.767387	-24.801868
5779.161462	160.898895	-52.825836	-23.340736
5779.164793	159.613098	-52.358269	-23.866745
5779.168126	158.561081	-51.773819	-22.580946
5779.171463	157.976624	-51.481590	-22.464056
5779.174803	156.690826	-51.130920	-21.295149
5779.178127	155.814148	-51.364700	-21.587376
5779.181456	154.879013	-51.656929	-20.827587
5779.184874	154.528351	-51.014030	-20.067797
5779.188127	154.002335	-50.546463	-19.658676
5779.191454	153.184113	-50.371132	-19.483341
5779.194794	153.067215	-50.488022	-18.957333
5779.198123	152.307419	-50.137352	-19.074223
5779.201458	151.080078	-49.962013	-18.548214
5779.204788	151.313858	-50.078903	-18.372879
5779.208127	150.729401	-49.319115	-17.496201
5779.211452	149.560501	-49.377556	-17.262417
5779.214792	149.326721	-49.669785	-17.203972
5779.218154	149.151382	-49.494453	-17.262417
5779.221459	148.859146	-48.968445	-17.087082
5779.224788	148.157806	-49.202225	-17.262417
5779.228115	148.157806	-49.260666	-16.151958
5779.231456	147.748688	-49.085335	-17.028637
5779.234788	147.982468	-48.793106	-16.619518
5779.238122	147.514908	-49.260666	-16.210403
5779.241473	146.988907	-49.377556	-17.203972
5779.244795	147.222687	-48.851555	-16.619518
5779.248123	147.047348	-49.143776	-16.268848
5779.251451	146.521332	-48.968445	-15.625950
5779.254790	146.813568	-49.377556	-16.210403
5779.258118	147.105804	-49.377556	-15.742840
5779.261492	146.696671	-49.143776	-16.035065
5779.264781	147.281128	-49.319115	-17.320862
5779.268116	146.988907	-49.026886	-16.035065
5779.271450	146.579788	-49.611343	-16.035065
5779.274777	147.222687	-48.676216	-17.613091
5779.278112	147.982468	-49.494453	-16.561073
5779.281449	147.865585	-49.260666	-16.444183
5779.284784	148.274704	-49.669785	-16.970192
5779.288115	148.099365	-49.903564	-17.437756
5779.291447	149.092926	-49.552895	-17.379311
5779.294776	149.326721	-50.137352	-17.788425
5779.298115	149.794281	-50.429573	-19.015778
5779.301445	150.378738	-50.604912	-18.372879
5779.304797	151.196960	-51.072472	-18.314434
5779.308109	151.664520	-50.663353	-18.665108
5779.311441	152.658096	-50.721802	-18.606663
5779.314778	152.833435	-51.130920	-20.126244
5779.319392	154.411453	-51.656929	-21.236704
5779.322782	155.346573	-52.358269	-21.879602
5779.326147	156.398605	-53.001167	-22.405611
5779.329465	156.807724	-52.825836	-23.399181
5779.332798	157.509064	-53.468735	-23.749853
5779.336101	158.268860	-53.468735	-22.931618
5779.339431	159.788437	-53.877853	-24.451197
5779.342797	160.372879	-54.520752	-25.094095
5779.346138	161.658691	-54.754532	-26.029221
5779.349069	162.184692	-54.988312	-25.912331
5779.352358	163.412048	-55.163651	-26.789011
5779.356047	164.464066	-56.274109	-27.490356
5779.358964	165.749863	-56.449448	-28.425482
5779.362286	167.269440	-57.033897	-29.828169
5779.365637	167.912338	-57.559906	-30.237288
5779.368986	169.724136	-58.436592	-31.230858
5779.372375	170.542374	-58.202805	-31.756866
5779.375688	171.886612	-58.962601	-32.925774
5779.378964	173.347763	-59.722389	-33.685562
5779.382273	175.101120	-60.715958	-34.211571
5779.385621	176.328461	-60.774399	-35.731148
5779.389019	178.081833	-61.358856	-36.724724
5779.392390	179.367615	-61.826416	-37.309174
5779.395701	180.887207	-62.001755	-39.822327
5779.399063	182.932785	-63.287552	-40.640560
5779.402294	184.569260	-63.813560	-42.627701
5779.405620	186.264175	-64.748688	-43.095264
5779.408946	188.660446	-64.865578	-44.673290
5779.412304	190.881363	-65.917595	-46.543541
5779.415650	192.985397	-66.268265	-48.530682
5779.419024	194.388092	-67.086502	-49.232029
5779.422353	196.959686	-67.729401	-52.388077
5779.425616	199.297501	-68.722969	-54.433662
5779.428963	201.693756	-69.073639	-56.537697
5779.432285	204.090012	-70.534775	-58.641731
5779.435660	205.901825	-71.353012	-61.914669
5779.438973	208.414963	-71.528351	-63.434250
5779.442356	211.220352	-73.164818	-65.947395
5779.445681	213.324371	-74.333725	-67.992989
5779.449016	217.006439	-74.976624	-71.032143
5779.452273	219.227356	-76.379311	-74.012856
5779.455619	221.448273	-77.840446	-77.110458
5779.458988	223.902985	-78.541786	-79.039154
5779.462295	227.526596	-79.710693	-82.721214
5779.465629	230.390427	-80.645821	-86.052597
5779.469075	233.371140	-82.048508	-88.390411
5779.471870	236.118073	-82.223846	-92.189362
5779.475612	239.624786	-84.035652	-94.994736
5779.478558	242.722382	-85.496788	-98.443016
5779.481850	245.586197	-86.548805	-102.709526
5779.485192	248.859161	-87.483925	-106.625366
5779.488526	252.248978	-89.412628	-110.248978
5779.491846	255.054352	-89.938629	-114.573929
5779.495223	258.561066	-91.808884	-120.067795
5779.498536	262.009338	-93.211571	-123.516075
5779.501875	265.983643	-94.205147	-128.951492
5779.505183	269.256561	-95.432495	-134.094681
5779.508523	272.646393	-97.361191	-138.653412
5779.511844	276.503784	-98.413208	-144.147278
5779.515185	280.185852	-99.465225	-149.699585
5779.518525	284.160156	-101.277031	-155.427246
5779.521879	288.368195	-101.627701	-160.570435
5779.525181	292.050262	-103.614845	-167.466980
5779.528539	295.849213	-105.075974	-173.311523
5779.531868	299.998810	-107.063118	-180.208069
5779.535198	304.031555	-107.822906	-187.747498
5779.538518	308.239594	-109.167152	-194.410278
5779.541847	312.798370	-110.862068	-201.949738
5779.545188	316.305084	-112.732315	-209.606079
5779.548518	320.863831	-113.784332	-218.665100
5779.551853	324.662750	-115.654587	-227.315002
5779.555181	328.461700	-116.706604	-236.724731
5779.558504	333.137329	-118.401527	-244.965515
5779.561861	337.579193	-118.810638	-254.725891
5779.565202	341.845673	-121.090004	-264.778503
5779.568519	345.644653	-122.317360	-275.415527
5779.571854	349.502045	-123.544716	-285.000580
5779.575178	354.177673	-125.064285	-295.053192
5779.578511	357.801270	-126.817650	-307.034485
5779.581873	361.834015	-127.694328	-318.489746
5779.585185	366.275848	-129.097015	-330.471039
5779.588512	369.841003	-130.558151	-342.627716
5779.591839	373.523071	-131.727066	-355.777893
5779.594760	376.503784	-133.246643	-367.759186
5779.598079	380.010529	-134.240204	-381.669189
5779.601417	383.225006	-135.759796	-395.520752
5779.604754	386.790161	-136.344238	-409.138489
5779.608094	389.186432	-137.863831	-424.626526
5779.611423	391.991821	-139.266510	-439.296295
5779.614752	393.745178	-139.734085	-454.725891
5779.618079	395.556976	-140.376968	-470.038574
5779.621412	397.719452	-140.844543	-485.877228
5779.624783	399.063690	-141.370544	-501.891296
5779.628079	400.291046	-141.838104	-517.963745
5779.631417	400.641693	-142.188782	-536.958557
5779.634744	400.875488	-142.247223	-553.440125
5779.638111	401.226166	-142.364120	-570.330750
5779.641410	400.466370	-141.779663	-588.098145
5779.644741	399.180573	-140.961426	-606.274658
5779.648073	398.187012	-140.493866	-623.866699
5779.651415	396.550537	-139.792526	-641.692566
5779.654744	395.030945	-138.682053	-661.213318
5779.658076	391.348907	-137.571594	-679.097595
5779.661407	387.783752	-135.701340	-698.033875
5779.664741	383.867920	-133.597321	-716.619507
5779.668100	379.835175	-132.311508	-735.555786
5779.671413	374.808868	-129.798370	-754.083008
5779.674745	367.737000	-127.752777	-771.675049
5779.678077	360.840454	-124.479836	-790.494446
5779.681427	353.710114	-122.492691	-808.787842
5779.684739	346.287537	-119.628868	-826.263000
5779.688074	337.228516	-115.479248	-843.621277
5779.691407	327.877258	-111.972534	-860.336609
5779.694744	317.649323	-107.998245	-877.110474
5779.698071	306.836914	-103.848625	-892.890625
5779.701407	294.738739	-99.640564	-910.073669
5779.704737	283.166565	-95.140266	-923.749817
5779.708069	270.133240	-90.055519	-937.835144
5779.711421	256.749268	-84.736992	-950.459412
5779.714734	242.663956	-78.834015	-963.083557
5779.718071	228.286377	-72.755699	-975.298584
5779.721399	213.032150	-66.969604	-985.292847
5779.724740	197.777908	-60.482178	-993.299805
5779.728065	180.536530	-54.228523	-1003.586182
5779.731410	164.522507	-47.974869	-1010.891846
5779.734741	146.930450	-41.721218	-1017.613037
5779.738067	129.922867	-34.590881	-1022.522461
5779.741405	112.038574	-27.811222	-1025.620117
5779.744737	93.862068	-20.797779	-1030.412598
5779.748109	76.270012	-12.264759	-1031.932251
5779.751397	57.859734	-5.426652	-1032.166016
5779.754738	39.040329	2.229689	-1031.873779
5779.758063	20.805378	9.243132	-1030.646484
5779.761397	1.343074	16.782583	-1028.133301
5779.764735	-16.774986	24.497366	-1025.620117
5779.768067	-34.776154	31.744593	-1019.717163
5779.771397	-53.011108	39.167152	-1014.340149
5779.774733	-70.661606	46.122147	-1009.021606
5779.778063	-87.844536	54.362946	-1000.371643
5779.781394	-105.085922	60.908829	-992.130859
5779.784725	-122.911751	68.565170	-982.779602
5779.788067	-139.159546	75.169495	-971.090637
5779.791436	-154.998245	82.241379	-960.161316
5779.794732	-170.661591	88.261253	-948.589172
5779.798079	-186.266510	95.274689	-935.555847
5779.801398	-200.468735	101.236122	-922.054993
5779.804728	-214.670944	108.541786	-908.729370
5779.808064	-227.938034	113.451195	-892.890625
5779.811398	-241.146683	119.646416	-877.578003
5779.814727	-253.011093	125.140266	-861.622437
5779.818061	-265.050873	129.757446	-845.666870
5779.821397	-276.856812	135.075974	-828.717712
5779.824735	-286.266510	139.576263	-812.294556
5779.828060	-297.254242	143.492096	-795.170105
5779.831390	-305.378143	147.583282	-777.694885
5779.834751	-314.612518	151.323776	-760.687317
5779.838060	-322.677979	154.129150	-743.445923
5779.841401	-329.749878	157.752777	-724.977234
5779.844726	-336.529541	160.850372	-707.852722
5779.848061	-342.549377	163.305069	-689.676208
5779.851409	-348.452362	166.227356	-672.668640
5779.854727	-352.952667	168.448273	-654.608948
5779.858058	-357.862091	169.383392	-636.549377
5779.861396	-362.187012	170.610748	-620.827576
5779.864722	-364.933960	172.247208	-603.118652
5779.868051	-367.563995	173.416122	-585.994141
5779.871385	-369.375824	174.117462	-568.869629
5779.874722	-370.778503	174.701920	-553.907654
5779.878092	-372.356537	175.461716	-538.127380
5779.881384	-373.408539	175.344818	-520.418457
5779.884735	-373.350098	176.163055	-505.281128
5779.888050	-373.525421	175.520157	-490.085327
5779.891391	-373.408539	175.227936	-474.772644
5779.894713	-372.765656	174.526581	-460.102844
5779.898055	-372.181183	173.649902	-446.368195
5779.901387	-370.077148	173.182343	-432.341309
5779.904719	-369.492706	172.773224	-418.840454
5779.908053	-367.563995	171.896545	-405.398010
5779.911431	-365.810638	170.902969	-392.481567
5779.914716	-362.888367	170.026291	-380.441833
5779.918052	-361.018127	168.389832	-367.642303
5779.921417	-358.329651	168.097595	-355.485657
5779.924713	-355.758057	165.993561	-343.913483
5779.928056	-352.543549	165.175323	-332.750427
5779.931381	-349.679718	163.246628	-321.704254
5779.934718	-345.763885	162.603729	-310.833405
5779.938053	-342.374054	160.382812	-300.780853
5779.941388	-339.101105	159.038559	-290.786652
5779.944714	-335.652863	157.577438	-281.201630
5779.948048	-331.970795	155.473389	-271.499695
5779.951382	-328.873169	153.720047	-262.148437
5779.954718	-325.015778	152.258911	-253.030975
5779.958043	-321.625977	150.213318	-243.679718
5779.961384	-316.716553	149.161301	-236.315613
5779.964726	-313.852722	146.998825	-228.133270
5779.968045	-309.469330	145.713028	-219.892456
5779.971376	-306.137939	143.608994	-212.937469
5779.974737	-302.397430	142.440094	-205.573364
5779.978047	-298.949158	140.394501	-197.916992
5779.981375	-295.208649	138.933365	-190.611328
5779.984711	-291.234375	137.004669	-184.474579
5779.988039	-287.084778	135.017517	-178.396255
5779.991380	-282.467560	132.913483	-171.265930
5779.994707	-279.369965	131.452362	-165.246063
5779.998047	-275.863251	129.699005	-160.336639
5780.001378	-272.298096	128.296310	-154.725891
5780.004709	-269.142029	126.952080	-149.115143
5780.008055	-265.050873	124.380486	-144.556396
5780.011377	-260.959686	123.386909	-139.822327
5780.014713	-257.978973	121.633553	-134.912918
5780.018038	-255.232040	120.464638	-130.412628
5780.021376	-251.199295	118.243721	-125.853882
5780.024705	-247.809464	116.782585	-122.113380
5780.028038	-244.594955	115.146111	-117.846870
5780.031378	-242.140274	113.977211	-114.164810
5780.034709	-238.633545	112.165413	-110.716537
5780.038062	-236.120392	111.522499	-107.443604
5780.041371	-232.613663	110.119812	-103.410873
5780.044708	-229.749847	108.541786	-100.254822
5780.048038	-227.412033	107.139099	-97.683228
5780.051375	-224.606659	105.911751	-94.994736
5780.054707	-221.976624	104.509056	-91.371124
5780.058041	-218.995911	103.457047	-88.682640
5780.061368	-216.774963	102.580360	-85.994156
5780.064703	-214.144943	100.943893	-83.247223
5780.068032	-211.690231	99.774986	-80.792519
5780.071366	-208.826401	98.430748	-77.110458
5780.074699	-206.605484	98.138512	-75.181763
5780.078035	-204.267670	96.268265	-73.019287
5780.081370	-201.754532	95.274689	-70.856812
5780.084700	-199.124481	94.456459	-68.694328
5780.088038	-196.494446	93.170662	-66.122734
5780.091449	-194.741089	92.703094	-64.194038
5780.094705	-193.513733	92.235535	-63.258911
5780.098040	-191.234360	90.657509	-61.388660
5780.101369	-188.721207	90.131500	-59.401520
5780.104703	-187.260071	89.371712	-57.648159
5780.108029	-185.506714	88.495033	-55.661015
5780.111397	-183.110458	87.793686	-54.492107
5780.114701	-181.590881	85.981888	-51.920513
5780.118030	-179.779068	85.806549	-50.400936
5780.121367	-177.967270	85.222092	-48.939800
5780.124696	-176.973694	84.053185	-47.595558
5780.128033	-174.635880	83.410286	-46.309761
5780.131364	-173.116302	83.176506	-45.374634
5780.134697	-171.713608	82.299828	-44.556400
5780.138024	-170.310913	81.014030	-42.919930
5780.141362	-168.674454	81.130920	-41.926357
5780.144691	-166.687317	80.546463	-40.699005
5780.148029	-166.044418	80.020454	-39.646988
5780.151361	-164.641724	79.669785	-38.419636
5780.154712	-163.472824	79.377556	-38.361191
5780.158025	-162.596130	78.033310	-37.016949
5780.161360	-160.842773	77.799530	-36.724724
5780.164697	-159.907654	77.331970	-36.023376
5780.168025	-159.147858	76.630623	-35.263588
5780.171359	-158.154282	76.396843	-34.445351
5780.174696	-157.394501	76.104622	-33.802452
5780.178026	-156.576263	75.578606	-32.691994
5780.181355	-155.524246	75.344826	-32.516655
5780.184694	-154.881348	75.753952	-31.932203
5780.188020	-154.589127	75.169495	-31.347748
5780.191374	-153.244888	74.526596	-30.938631
5780.194688	-152.777313	74.585037	-30.061951
5780.198025	-151.491516	73.533020	-30.061951
5780.201356	-150.556396	73.766800	-29.009935
5780.204686	-150.030396	72.890121	-29.243717
5780.208017	-149.855042	73.123909	-27.899473
5780.211363	-149.329041	73.182350	-27.782583
5780.214685	-148.160141	72.130333	-27.548801
5780.218026	-148.335480	72.597893	-27.607246
5780.221356	-148.218582	71.955002	-27.548801
5780.224684	-147.341904	72.364113	-26.263002
5780.228019	-147.049667	72.247223	-26.379894
5780.231354	-146.874344	71.721214	-25.561659
5780.234719	-146.289886	71.487434	-26.029221
5780.238017	-145.705429	71.662766	-25.736996
5780.241353	-145.763870	71.955002	-25.503214
5780.244678	-145.179413	71.312096	-25.678549
5780.248018	-145.530090	71.312096	-24.918760
5780.251345	-144.536530	71.253654	-24.568089
5780.254681	-144.536530	71.253654	-24.568089
5780.259387	-144.770309	70.902985	-24.568089
5780.262688	-143.835175	71.019875	-24.860315
5780.265983	-144.185852	71.604324	-24.860315
5780.269308	-143.893631	71.428986	-24.626534
5780.272711	-144.536530	71.487434	-24.743423
5780.276060	-144.653427	71.545876	-24.568089
5780.278979	-144.828751	70.961426	-25.795441
5780.282684	-144.887207	71.662766	-24.977205
5780.285979	-145.120987	71.838112	-25.561659
5780.289312	-145.705429	72.013443	-25.269432
5780.292689	-146.056107	72.071892	-25.795441
5780.295607	-146.289886	71.662766	-26.321447
5780.298941	-146.465225	71.838112	-26.204557
5780.302284	-146.932785	72.773232	-26.204557
5780.305532	-147.108124	72.773232	-26.555229
5780.308864	-148.043243	73.240799	-27.081240
5780.312194	-148.277023	73.591469	-27.841028
5780.315569	-148.861481	73.240799	-28.250145
5780.318875	-148.978363	74.234367	-28.600817
5780.322311	-150.322601	74.526596	-28.367037
5780.325595	-149.971939	74.877266	-30.120396
5780.328891	-151.023956	75.169495	-30.704849
5780.332194	-152.075974	75.870842	-31.523087
5780.335523	-152.368210	75.695503	-30.880186
5780.338880	-153.361771	76.104622	-32.282875
5780.342212	-153.770889	76.922852	-32.750439
5780.345609	-154.589127	77.331970	-33.334892
5780.348921	-155.465805	77.390419	-34.153126
5780.352192	-156.634720	77.799530	-34.270016
5780.355516	-157.277618	78.267097	-35.555817
5780.358868	-159.030960	78.909996	-35.848042
5780.362218	-159.498535	79.494453	-36.140266
5780.365567	-160.784332	79.962013	-36.900059
5780.368933	-162.303909	81.130920	-37.309174
5780.372255	-163.063690	81.189362	-38.594971
5780.375535	-164.174164	81.481590	-39.763878
5780.378851	-165.343079	82.241379	-40.465225
5780.382185	-166.570419	83.059608	-41.926357
5780.385543	-167.388657	83.585625	-42.452366
5780.388879	-169.434235	84.812981	-43.504383
5780.392251	-170.953827	84.988312	-44.205727
5780.395596	-172.239624	85.631210	-45.023964
5780.398888	-174.168320	86.683228	-46.368206
5780.402202	-175.512558	87.501457	-48.121567
5780.405514	-176.798355	88.202805	-49.173580
5780.408905	-178.084152	89.722389	-50.459381
5780.412213	-179.603729	90.306831	-52.095848
5780.415120	-181.532440	91.826416	-54.550556
5780.418448	-183.578018	92.001755	-56.771477
5780.421778	-185.623596	93.112221	-57.940384
5780.425089	-186.675629	93.988899	-59.810635
5780.428429	-189.071884	94.865578	-62.031559
5780.431781	-190.240799	96.326714	-63.551140
5780.435094	-192.637039	97.904732	-65.830505
5780.438426	-194.682632	98.781410	-67.525421
5780.441759	-197.254227	100.125664	-70.097015
5780.445093	-199.475143	101.294571	-72.610168
5780.448436	-201.929855	101.820564	-74.012856
5780.451785	-204.559906	103.807716	-76.935127
5780.455103	-206.605484	105.911751	-78.922272
5780.458429	-209.177094	107.197548	-81.084747
5780.461762	-211.631775	107.723549	-85.175919
