time (s)	magX	magY	magZ
6199.905918	251.014038	-517.585022	-709.101685
6199.909249	251.656921	-513.844543	-687.418396
6199.912596	251.949158	-510.863831	-668.365234
6199.915919	251.715363	-506.889526	-648.201599
6199.919244	251.481598	-503.324371	-630.025085
6199.922586	250.488037	-500.226776	-611.030334
6199.925913	249.786682	-496.252472	-593.789001
6199.929245	248.033325	-491.518433	-575.846252
6199.932596	246.572174	-487.777893	-559.715332
6199.935912	245.987747	-483.160736	-543.409119
6199.939248	244.117493	-479.478699	-526.985962
6199.942577	241.838120	-475.445923	-511.381042
6199.945912	240.318527	-471.413239	-496.360626
6199.949241	238.506714	-467.146729	-481.866180
6199.952577	236.461136	-463.639954	-468.599091
6199.955907	234.824677	-458.555267	-454.396851
6199.959246	232.545288	-454.288727	-440.545288
6199.962579	230.850372	-449.203949	-428.739319
6199.965912	229.038589	-445.463470	-416.699585
6199.969269	226.934540	-440.904755	-405.185852
6199.972578	225.414963	-436.404449	-393.905884
6199.975931	223.953827	-431.202820	-382.216827
6199.979240	222.375809	-426.994751	-370.878418
6199.982578	221.323792	-422.260651	-359.832245
6199.985907	219.687302	-417.877289	-349.662781
6199.989245	218.284622	-413.143188	-338.967285
6199.992578	216.589722	-407.707794	-329.090027
6199.995910	215.654602	-403.032166	-319.388062
6199.999238	214.544113	-398.648743	-310.445953
6200.002571	213.725891	-393.680908	-301.737579
6200.005910	211.797195	-388.479248	-293.438324
6200.009243	210.569855	-383.920532	-284.613098
6200.012601	209.517822	-379.887787	-276.196960
6200.015909	208.407364	-374.510834	-268.014618
6200.019242	207.355347	-369.718323	-260.475159
6200.022571	205.192871	-365.334900	-252.468155
6200.025906	204.023972	-360.776154	-245.630051
6200.029238	202.445938	-356.977234	-238.675049
6200.032568	200.692581	-352.652252	-232.362946
6200.035899	199.991241	-348.794861	-225.583282
6200.039239	198.296326	-344.469910	-219.329636
6200.042569	196.484528	-340.437195	-212.959091
6200.045917	195.724731	-337.281128	-206.997665
6200.049231	194.088257	-333.949738	-202.380493
6200.052568	191.867325	-330.033905	-197.529510
6200.055929	190.113983	-326.760986	-193.321457
6200.059230	188.243729	-323.897156	-188.295151
6200.062570	186.490356	-320.858002	-184.203979
6200.065902	185.204559	-317.935730	-179.586792
6200.069233	183.509644	-314.487457	-175.378738
6200.072568	181.580948	-311.682068	-172.047348
6200.075896	180.353592	-308.935150	-167.839279
6200.079227	178.308014	-306.714233	-164.390991
6200.082568	177.139099	-304.025726	-160.358261
6200.085898	175.619522	-302.155457	-157.494461
6200.089228	173.924606	-299.350098	-154.747513
6200.092562	172.288132	-296.486267	-151.942139
6200.095904	171.236130	-294.616028	-149.312103
6200.099252	169.833435	-292.395111	-146.156052
6200.102565	168.196960	-290.524872	-143.642899
6200.105895	166.560501	-288.011688	-140.954422
6200.109225	165.800705	-285.673889	-138.265930
6200.112561	165.274689	-283.803619	-135.986557
6200.115895	164.047333	-281.407379	-133.824081
6200.119232	162.644653	-279.946259	-131.603149
6200.122562	161.767975	-277.316193	-129.090012
6200.125898	161.241959	-275.329071	-126.518402
6200.129229	160.657516	-272.932800	-125.174164
6200.132560	159.956177	-270.711853	-122.602570
6200.135890	159.254822	-268.900085	-120.498535
6200.139225	158.319702	-267.205139	-118.277618
6200.142593	158.495041	-264.692017	-115.589127
6200.145896	157.384583	-263.113953	-114.537109
6200.149223	157.443008	-261.360596	-112.608414
6200.152559	157.326126	-259.724152	-111.381065
6200.155887	156.741669	-257.912323	-109.627701
6200.159221	156.391006	-256.100525	-107.523666
6200.162562	156.274109	-254.931625	-105.653427
6200.165890	155.981888	-253.002914	-103.900055
6200.169221	155.864990	-251.600220	-103.081825
6200.172554	154.462311	-250.372864	-101.912918
6200.175889	154.812988	-249.320862	-100.101112
6200.179225	154.462311	-247.918182	-99.341324
6200.182556	154.579208	-247.275284	-98.172417
6200.185915	153.468735	-245.755692	-97.120399
6200.189216	153.176514	-245.521912	-95.834595
6200.192554	153.176514	-244.119217	-95.133255
6200.195892	152.299820	-244.002319	-94.899475
6200.199220	151.890717	-243.067200	-94.548798
6200.202553	152.299820	-242.891861	-93.496780
6200.205882	151.423141	-242.307434	-93.555237
6200.209216	151.130920	-241.664505	-93.496780
6200.212546	150.780258	-241.080078	-93.672119
6200.215918	150.604919	-241.430740	-92.444771
6200.219220	150.780258	-240.846283	-92.853882
6200.222553	150.137360	-240.846283	-92.094101
6200.225882	149.845123	-241.138504	-92.853882
6200.229216	149.319107	-241.255402	-92.561661
6200.232551	149.611343	-240.729385	-92.444771
6200.235887	149.085327	-240.729385	-92.737000
6200.239218	149.786682	-240.028046	-92.210983
6200.242547	149.202225	-240.670944	-92.035652
6200.245884	149.845123	-240.378723	-92.970779
6200.249216	148.968430	-240.554047	-92.210983
6200.252546	149.319107	-240.320282	-92.327881
6200.255915	149.436005	-240.203384	-92.210983
6200.259241	150.429581	-240.203384	-92.152542
6200.262546	150.897141	-240.261826	-92.094101
6200.265883	150.955582	-240.495621	-93.087669
6200.269216	151.832260	-240.495621	-93.379898
6200.272544	152.007599	-240.670944	-93.379898
6200.275877	152.650497	-240.904739	-93.204559
6200.279210	153.527176	-240.378723	-94.198135
6200.282542	154.170074	-240.437180	-93.496780
6200.285877	154.579208	-241.255402	-94.315018
6200.289212	155.455872	-241.606064	-94.724136
6200.292545	156.507889	-241.956741	-95.016365
6200.295876	156.624786	-241.898300	-95.600815
6200.299207	157.852142	-242.716537	-96.945068
6200.302556	158.144363	-242.833420	-97.120399
6200.305871	158.904144	-243.651657	-97.821747
6200.309214	159.897720	-243.885452	-99.049095
6200.312549	160.540619	-244.469879	-99.984222
6200.315879	161.651093	-245.288132	-100.276443
6200.319203	162.352432	-246.223267	-101.854477
6200.322539	163.521347	-246.690826	-102.555817
6200.325956	163.638229	-248.268845	-104.016953
6200.330483	166.151367	-250.431320	-106.530098
6200.333863	166.618927	-251.775558	-109.043251
6200.337177	167.904739	-253.704269	-110.212158
6200.340625	168.664536	-254.931625	-111.731735
6200.343591	169.365875	-256.334320	-113.426651
6200.347241	170.827011	-257.795441	-115.180016
6200.350169	171.236130	-258.730560	-117.459381
6200.353802	172.463486	-260.893036	-120.147873
6200.357191	173.223267	-263.113953	-121.492111
6200.360540	174.099945	-263.932220	-123.654587
6200.363896	174.567505	-266.094696	-126.109299
6200.366831	175.794861	-267.906494	-128.739334
6200.370139	177.372894	-269.835205	-131.661606
6200.373812	178.717133	-271.588562	-133.181183
6200.376753	180.002930	-273.049683	-136.044998
6200.380059	180.879608	-274.803070	-138.207489
6200.383408	182.925186	-276.965515	-142.357101
6200.386734	184.503220	-278.660431	-144.694916
6200.390150	186.198135	-280.472260	-146.506729
6200.393504	187.542374	-282.400940	-149.195206
6200.396718	189.237289	-284.271179	-152.059036
6200.400046	191.282883	-286.199890	-155.682632
6200.403377	193.912918	-287.953247	-158.078903
6200.406738	195.198715	-290.057281	-161.059616
6200.410074	197.010513	-291.985992	-163.397430
6200.413479	199.289902	-293.914673	-167.547058
6200.416801	202.212158	-295.843384	-171.229111
6200.420157	204.608414	-297.655182	-175.320282
6200.423382	206.361786	-299.642334	-178.651672
6200.426712	207.998260	-302.272369	-182.801285
6200.430041	210.569855	-303.616608	-187.301590
6200.433422	213.082993	-306.305084	-190.749863
6200.436756	215.654602	-308.642914	-194.841034
6200.440118	218.226181	-310.337830	-200.042679
6200.443455	219.862671	-313.201630	-205.653427
6200.446702	222.317352	-315.773254	-210.738159
6200.450047	225.473419	-318.812408	-215.647568
6200.453380	228.103455	-321.384003	-220.907654
6200.456737	230.207474	-323.663361	-226.752197
6200.460067	232.837524	-327.286987	-232.538284
6200.463499	235.350677	-330.559906	-238.791931
6200.466797	237.863815	-333.774414	-245.513153
6200.470106	239.967865	-337.164246	-252.000595
6200.473374	242.890137	-340.495636	-259.364685
6200.476714	244.701920	-343.710144	-266.144348
6200.480037	248.208664	-347.801300	-273.683807
6200.483395	250.371140	-351.541809	-281.223267
6200.486739	252.358292	-354.931641	-289.464050
6200.489637	255.163666	-358.555237	-296.594391
6200.492974	257.735229	-362.237305	-305.419617
6200.496323	260.482178	-365.393341	-313.835785
6200.499654	262.995331	-369.367645	-323.537689
6200.502954	265.566895	-373.108154	-332.479828
6200.506284	269.190521	-376.965515	-341.655762
6200.509621	271.469879	-380.180023	-350.481018
6200.512941	275.268829	-383.862091	-361.410278
6200.516272	278.249542	-387.777924	-371.521332
6200.519618	281.580933	-390.992432	-382.801300
6200.522971	284.444763	-394.031555	-393.555237
6200.526300	287.834595	-397.304504	-403.841614
6200.529640	291.458191	-400.343689	-415.355347
6200.532944	295.315613	-403.032166	-427.044403
6200.536290	299.173004	-406.129761	-438.733490
6200.539620	303.030365	-408.935150	-451.474579
6200.542976	306.537109	-411.331390	-462.871399
6200.546281	311.037384	-414.312134	-476.255402
6200.549614	315.420807	-416.883698	-488.938049
6200.552939	319.395081	-419.338409	-503.081848
6200.556272	323.427826	-421.325531	-517.693176
6200.559660	326.992950	-422.611328	-532.070740
6200.562963	331.551727	-425.533630	-547.441833
6200.566318	335.175323	-427.812988	-562.754517
6200.569607	339.324951	-429.624786	-578.943909
6200.572942	342.714783	-431.144379	-595.074768
6200.576275	347.098175	-432.313293	-611.965454
6200.579606	351.130920	-435.294006	-628.096375
6200.582946	354.111633	-436.170654	-646.740479
6200.586291	357.326111	-438.157776	-664.274109
6200.589604	360.949738	-439.502045	-682.742798
6200.592964	363.521301	-440.729431	-701.912903
6200.596297	366.443573	-442.073669	-721.842773
6200.599624	368.547638	-443.067200	-741.363464
6200.602518	371.645233	-443.710144	-761.760925
6200.605845	373.807678	-444.294586	-781.632324
6200.609179	375.561066	-444.995911	-803.023376
6200.612518	377.139099	-445.054382	-824.881897
6200.615846	378.600220	-444.995911	-846.097595
6200.619176	379.710663	-444.352997	-867.605469
6200.622511	380.879578	-443.476349	-889.347107
6200.625851	380.587372	-442.541199	-911.790161
6200.629213	381.405579	-441.430756	-933.882507
6200.632508	381.288727	-439.560516	-956.851562
6200.635839	381.580933	-437.164246	-979.645203
6200.639178	381.990051	-434.358887	-1000.451721
6200.642510	381.347168	-431.085907	-1022.134949
6200.645837	380.762695	-426.994751	-1043.935059
6200.649176	379.886017	-423.371124	-1066.261230
6200.652503	379.769135	-418.637085	-1087.769165
6200.655839	378.307983	-413.669189	-1109.802979
6200.659177	377.431335	-407.006439	-1131.603149
6200.662507	376.496185	-400.635895	-1151.942139
6200.665836	375.035034	-394.031555	-1172.456421
6200.669194	373.924591	-386.199890	-1192.970825
6200.672542	370.943878	-378.017548	-1211.848633
6200.675833	369.599640	-368.607849	-1231.077271
6200.679181	366.677368	-359.198120	-1250.305664
6200.682507	364.690247	-348.794861	-1268.073120
6200.685843	362.118622	-338.391571	-1286.600220
6200.689171	358.904144	-326.819427	-1302.614380
6200.692501	355.338989	-314.838104	-1319.621826
6200.695842	351.247772	-302.915253	-1335.928223
6200.699170	346.689056	-289.472839	-1351.416138
6200.702500	342.247223	-275.679718	-1364.741699
6200.705842	336.578003	-261.769745	-1379.002441
6200.709166	330.733459	-247.684387	-1391.509644
6200.712503	324.304474	-233.306839	-1404.367676
6200.715848	317.524841	-217.818817	-1415.296997
6200.719168	310.160706	-202.915253	-1425.758667
6200.722501	300.692566	-186.492096	-1435.694336
6200.725836	292.393311	-169.718292	-1443.876709
6200.729165	283.158966	-153.412033	-1452.117432
6200.732498	273.515472	-135.469315	-1458.780273
6200.735834	262.293976	-118.403282	-1466.027466
6200.739164	251.540024	-101.278786	-1470.118652
6200.742500	240.376984	-83.394508	-1473.216309
6200.745837	229.038589	-65.101112	-1475.904785
6200.749169	216.881927	-46.749268	-1477.541260
6200.752501	204.549973	-28.748100	-1479.119263
6200.755834	191.808884	-9.636471	-1477.599609
6200.759158	178.950912	8.832262	-1474.969604
6200.762497	166.326721	27.476328	-1472.982544
6200.765839	153.410294	46.821739	-1470.060303
6200.769165	140.669205	65.524254	-1465.267700
6200.772495	127.109879	84.635880	-1459.423218
6200.775829	114.719467	104.390411	-1452.059082
6200.779168	102.971947	122.683815	-1445.630127
6200.782493	90.289307	141.210999	-1436.980225
6200.785826	78.950905	160.381058	-1426.927612
6200.789158	66.911163	179.551147	-1415.939819
6200.792495	55.163647	198.136749	-1405.302734
6200.795822	45.052601	216.839279	-1393.730591
6200.799156	34.298656	234.372879	-1380.872681
6200.802497	23.544712	253.309189	-1367.254883
6200.805892	13.316774	270.199890	-1353.520264
6200.809183	2.270602	288.493256	-1338.499756
6200.812492	-7.723552	305.793091	-1323.888428
6200.815828	-16.665691	322.742249	-1307.640625
6200.819160	-26.016949	338.990051	-1291.100586
6200.822490	-35.134426	355.413208	-1275.612549
6200.825825	-43.901230	371.427246	-1257.786743
6200.829161	-53.194042	386.739929	-1241.129761
6200.832490	-61.376385	400.942139	-1223.713013
6200.835825	-69.324959	415.085907	-1206.120972
6200.839155	-78.676208	429.054352	-1186.074341
6200.842487	-86.274101	441.620117	-1168.190063
6200.845823	-94.631790	454.185822	-1150.422607
6200.849156	-102.697250	467.336029	-1130.960327
6200.852493	-111.230278	478.323792	-1112.608521
6200.855824	-119.237289	489.077728	-1093.438354
6200.859156	-126.952072	498.545898	-1074.852783
6200.862489	-134.959091	507.838684	-1055.799561
6200.865821	-141.914078	516.546997	-1038.090576
6200.869151	-149.219742	524.437134	-1019.914001
6200.872481	-156.876099	531.099915	-1001.094666
6200.875885	-164.181763	537.879639	-982.625916
6200.879151	-170.727646	544.016357	-963.923401
6200.882481	-177.448853	549.218018	-946.214478
6200.885819	-183.468735	554.244263	-928.563965
6200.889188	-189.196381	558.218567	-909.861450
6200.892484	-194.631805	562.485107	-892.444763
6200.895824	-200.534775	565.933350	-875.495605
6200.899146	-205.093506	568.563416	-858.020447
6200.902484	-209.710709	571.544128	-841.246643
6200.905816	-213.801865	573.706604	-824.180542
6200.909146	-218.477493	575.576843	-807.698975
6200.912481	-221.984207	576.745728	-791.158936
6200.915817	-224.205139	578.265320	-776.080078
6200.919147	-226.893631	578.557556	-761.293396
6200.922484	-229.289871	580.310913	-746.097595
6200.925816	-231.686142	580.427795	-730.551086
6200.929152	-233.147278	580.661560	-716.056641
6200.932502	-235.017517	579.901794	-700.919312
6200.935806	-236.478668	580.603149	-686.658630
6200.939150	-237.764465	579.258911	-672.631775
6200.942478	-238.173584	578.674438	-657.728210
6200.945860	-238.582687	578.382202	-645.104004
6200.949154	-239.400925	577.505554	-630.901794
6200.952477	-239.517822	575.518433	-617.693176
6200.955808	-239.517822	574.524841	-605.302734
6200.959142	-239.284042	573.122131	-590.866699
6200.962477	-239.868484	571.135010	-578.300964
6200.965810	-239.985382	568.388062	-566.261230
6200.969147	-239.868484	566.050232	-554.747498
6200.972477	-239.400925	563.770874	-541.831116
6200.975847	-239.342484	561.257751	-528.797729
6200.979137	-239.751617	558.335449	-517.517822
6200.982478	-239.517822	555.880737	-505.945618
6200.985809	-239.576279	551.614258	-495.834595
6200.989143	-239.517822	548.516663	-484.671539
6200.992473	-238.991821	544.951477	-473.742249
6200.995805	-239.284042	541.853882	-463.806519
6200.999141	-239.050247	538.873169	-453.461700
6201.002479	-239.342484	534.723511	-444.578033
6201.005809	-239.400925	531.099915	-434.291656
6201.009140	-239.751617	527.008789	-425.700195
6201.012474	-239.517822	523.560486	-415.998230
6201.015842	-239.167145	517.949707	-406.939209
6201.019174	-238.758026	514.793701	-398.756866
6201.022467	-238.582687	511.228516	-390.691406
6201.025815	-238.465790	507.020447	-382.567535
6201.029140	-238.290466	502.812378	-375.203400
6201.032468	-238.348923	499.481018	-368.248383
6201.035800	-237.822906	495.097595	-361.819397
6201.039136	-237.121567	491.123291	-355.215088
6201.042469	-236.478668	488.259460	-347.208069
6201.045803	-236.712448	484.343628	-340.603760
6201.049140	-235.718887	480.603119	-333.648743
6201.052464	-235.134415	476.979553	-328.271759
6201.055801	-234.140854	474.232574	-322.544128
6201.059139	-232.855042	470.199890	-317.050262
6201.062488	-231.919922	467.862030	-311.439514
6201.065797	-231.452362	463.712463	-306.179413
6201.069131	-229.640564	459.855042	-301.270020
6201.072470	-229.114548	457.108124	-296.126831
6201.075799	-227.419632	453.952087	-290.925171
6201.079196	-226.367630	451.088257	-286.015778
6201.082469	-225.666275	448.107544	-281.573914
6201.085796	-224.497375	445.068359	-276.138519
6201.089130	-223.796021	442.379852	-273.216248
6201.092463	-222.451767	440.158936	-268.131500
6201.095796	-221.049088	436.301575	-263.923431
6201.099127	-219.880188	434.080658	-260.182953
6201.102462	-219.061951	430.515472	-255.156631
6201.105830	-218.302170	428.879028	-251.649918
6201.109126	-216.490356	425.313873	-247.091187
6201.112465	-215.379898	422.800690	-243.409119
6201.115798	-214.620102	419.995300	-240.194626
6201.119127	-214.152542	416.839264	-236.220337
6201.122457	-212.983643	414.618347	-232.596725
6201.125791	-212.866745	411.812988	-229.148453
6201.129122	-212.691406	409.416687	-225.758621
6201.132457	-211.171829	406.962006	-222.485687
6201.135791	-211.230270	403.922852	-218.569855
6201.139128	-211.288727	401.468140	-216.290482
6201.142458	-210.587372	398.370514	-213.251328
6201.145811	-210.119812	397.143188	-210.387497
6201.149139	-210.178268	394.279358	-208.283463
6201.152456	-209.360016	392.175354	-205.594971
6201.155795	-209.360016	390.305084	-204.250732
6201.159122	-209.418472	387.675049	-201.796021
6201.162458	-208.892456	385.571014	-199.458221
6201.165786	-208.308014	383.817627	-197.471085
6201.169122	-208.717117	381.421387	-195.717712
6201.172453	-208.600220	380.310913	-194.081238
6201.175789	-208.366455	377.797791	-192.327896
6201.179128	-208.191116	376.745758	-191.217422
6201.182450	-207.957321	374.466370	-189.113388
6201.185785	-207.957321	373.648163	-187.944473
6201.189124	-207.197525	372.362366	-186.191132
6201.192463	-206.729965	371.368774	-185.840454
6201.195788	-206.788437	369.615417	-184.496216
6201.199119	-206.262405	368.388062	-183.794861
6201.202455	-206.203964	368.095825	-182.158386
6201.205787	-205.911743	367.043823	-181.632385
6201.209166	-206.087082	366.225586	-181.223267
6201.213746	-204.801285	364.764465	-179.411453
6201.217111	-204.567490	363.829346	-178.534775
6201.220465	-204.509048	362.894196	-178.008759
6201.223871	-204.625946	362.835754	-176.839859
6201.226786	-204.041489	362.134399	-176.722977
6201.230470	-203.573929	361.374634	-175.846298
6201.233777	-203.164795	361.374634	-175.495621
6201.237129	-203.281693	360.497925	-174.502045
6201.240435	-203.281693	359.796600	-173.859146
6201.243850	-203.807724	359.270599	-173.040909
6201.246721	-203.457031	359.562805	-172.865570
6201.250036	-204.041489	358.627686	-172.865570
6201.253415	-203.573929	358.335480	-172.690247
6201.256634	-204.158386	357.575684	-172.456467
6201.259977	-204.684387	357.634125	-171.988892
6201.263294	-205.444183	356.348328	-172.748688
6201.266644	-205.853302	356.874329	-172.105789
6201.269987	-206.963760	355.939209	-172.456467
6201.273367	-206.905319	355.822296	-171.988892
6201.276717	-207.957321	355.880768	-173.040909
6201.280034	-207.723557	355.179413	-173.040909
6201.283293	-209.418472	355.062500	-173.391586
6201.286629	-209.944473	355.004089	-174.852722
6201.289968	-210.645828	355.237885	-174.852722
