time (s)	magX	magY	magZ
7440.185339	-302.631226	164.766205	-185.409698
7440.188673	-306.488617	167.688492	-192.364685
7440.192033	-310.346008	170.084732	-198.735229
7440.195336	-313.502045	172.013428	-206.508484
7440.198673	-317.885468	174.526581	-213.697235
7440.202007	-322.035065	177.039734	-220.710693
7440.205336	-325.366455	179.552887	-228.308594
7440.208673	-329.399200	181.598465	-236.783173
7440.212007	-333.081238	184.286957	-245.608429
7440.215371	-337.172424	186.391006	-254.375214
7440.218672	-341.029816	189.780823	-263.551147
7440.222015	-345.413239	191.943298	-272.317963
7440.225340	-348.686157	195.099365	-281.902985
7440.228674	-353.361786	197.144943	-291.838684
7440.231997	-356.634735	200.008759	-301.423737
7440.235335	-359.849213	201.762115	-311.885437
7440.238669	-363.881927	204.567490	-322.990051
7440.242001	-367.563995	206.963760	-333.451782
7440.245336	-371.012268	209.769135	-345.433075
7440.248680	-374.285217	211.347153	-358.700165
7440.252001	-377.032166	214.152527	-370.447693
7440.255335	-380.188202	216.490341	-383.948547
7440.258700	-383.344269	218.360596	-396.572754
7440.261999	-385.448273	219.704849	-410.891876
7440.265348	-388.604340	222.042664	-424.568054
7440.268666	-389.773254	223.445358	-439.179413
7440.271995	-392.169495	225.432495	-454.316772
7440.275334	-394.332001	227.711853	-468.869659
7440.278664	-394.974884	228.062515	-485.292786
7440.281995	-395.968445	229.757431	-501.365295
7440.285330	-397.604919	230.809464	-516.911743
7440.288661	-397.663361	231.978378	-535.555847
7440.292000	-397.897156	233.205734	-551.628296
7440.295327	-398.189362	234.316193	-568.285217
7440.298667	-397.254242	234.023956	-587.396851
7440.302022	-396.202240	234.257736	-604.696655
7440.305326	-395.617798	233.907059	-621.879578
7440.308663	-393.046173	233.439499	-640.582092
7440.312011	-390.474579	233.088837	-658.291077
7440.315330	-386.909393	232.738174	-678.220886
7440.318663	-383.519592	231.218582	-695.812927
7440.321993	-379.603729	230.166565	-716.561096
7440.325324	-374.986572	228.296310	-733.860901
7440.328665	-369.726471	226.952057	-752.738708
7440.331998	-364.291077	224.789581	-771.908813
7440.335328	-357.043823	222.743988	-791.137329
7440.338661	-350.439514	219.646393	-810.541199
7440.341988	-341.906494	217.308578	-829.652832
7440.345341	-333.022797	213.100510	-848.063110
7440.348661	-324.723572	209.769135	-866.298035
7440.351990	-314.495636	205.619507	-884.708313
7440.355322	-303.975464	201.762115	-904.170593
7440.358663	-293.396851	196.852722	-920.418457
7440.361987	-280.538849	191.592636	-938.711853
7440.365322	-268.674469	186.157211	-956.303894
7440.368660	-255.173569	180.488007	-972.843933
7440.371987	-242.198715	174.468140	-989.208618
7440.375347	-227.996490	168.039154	-1003.527771
7440.378657	-212.333130	160.967255	-1019.015808
7440.381985	-196.669769	153.778488	-1034.036255
7440.385321	-180.597305	146.648148	-1047.712402
7440.388654	-163.472824	139.108704	-1060.804199
7440.391990	-146.815887	131.277023	-1072.668579
7440.395324	-129.048508	122.685570	-1084.942139
7440.398653	-110.170662	114.620110	-1094.118042
7440.401984	-91.935715	105.268852	-1103.761475
7440.405320	-72.473412	96.443596	-1113.054443
7440.408649	-53.946228	87.443024	-1120.301514
7440.411985	-34.133255	78.208656	-1127.607300
7440.415322	-14.554062	69.617187	-1131.698486
7440.418666	5.492694	60.265923	-1136.081787
7440.421985	25.773232	50.797783	-1137.718262
7440.425314	45.761543	41.446518	-1139.296387
7440.428648	64.580940	31.919928	-1140.289917
7440.431978	84.686150	23.270014	-1138.361206
7440.435336	104.148445	12.925188	-1137.250732
7440.438657	122.734070	4.918177	-1134.971313
7440.441981	143.774414	-4.140855	-1130.471069
7440.445319	161.834015	-13.316775	-1122.405640
7440.448687	179.250732	-22.784922	-1116.619507
7440.451987	197.310349	-31.376389	-1110.190552
7440.455313	214.259506	-39.032730	-1099.728760
7440.458644	231.267090	-46.572182	-1088.624146
7440.461993	246.988907	-54.871422	-1078.571655
7440.465316	262.710693	-62.001755	-1067.525391
7440.468643	277.322021	-69.190529	-1055.193481
7440.471978	291.816467	-75.794853	-1041.575684
7440.475313	305.375793	-81.873177	-1028.250122
7440.478647	319.285767	-88.594383	-1012.411438
7440.481978	331.910004	-94.322037	-998.209229
7440.485313	342.839264	-99.874344	-980.851013
7440.488646	354.177673	-105.251312	-964.895386
7440.491983	364.347137	-110.219170	-946.426697
7440.495313	374.808868	-115.070129	-929.068359
7440.498657	382.815887	-119.161308	-911.768555
7440.501974	391.933380	-123.544716	-893.124512
7440.505306	399.355927	-127.051430	-874.597290
7440.508640	406.778473	-130.324371	-854.842773
7440.511976	413.558136	-134.123322	-835.731140
7440.515308	419.344208	-137.337814	-815.918152
7440.518640	424.721222	-140.318527	-796.397400
7440.521976	428.987732	-143.299240	-777.636475
7440.525306	432.611359	-145.169495	-758.115723
7440.528638	436.293396	-148.033325	-739.179443
7440.531968	438.397430	-150.020462	-719.892456
7440.535313	441.027466	-151.306259	-700.079529
7440.538642	443.189941	-152.825836	-681.610718
7440.541972	443.891266	-154.053192	-662.382202
7440.545299	445.060181	-155.163651	-643.329041
7440.548632	445.293976	-156.800125	-624.509644
7440.551966	445.293976	-157.618362	-607.034485
7440.555306	444.884857	-158.027481	-589.383972
7440.558639	443.599060	-158.553482	-571.149048
7440.561982	442.663940	-159.021042	-554.492126
7440.565308	440.852142	-158.962601	-537.075378
7440.568639	439.449432	-158.728821	-519.892456
7440.572000	436.819397	-158.904144	-504.287537
7440.575301	434.423126	-158.202805	-488.331940
7440.578643	431.968445	-158.319702	-472.727081
7440.581973	429.396851	-157.326126	-457.765015
7440.585300	425.247223	-157.150803	-443.504364
7440.588630	422.617187	-155.806564	-429.185272
7440.591969	419.168884	-155.572769	-415.567505
7440.596650	411.161896	-153.936310	-388.098175
7440.600007	407.772034	-152.533600	-376.350647
7440.603321	404.265350	-151.481598	-364.486267
7440.606631	400.115723	-150.371140	-352.446533
7440.609957	396.024536	-149.552902	-340.815887
7440.613338	391.991821	-148.150208	-329.068359
7440.616673	388.485077	-146.747528	-318.898865
7440.619976	383.867920	-145.870850	-308.554077
7440.622882	379.776733	-144.000595	-298.559906
7440.626575	375.159546	-142.773239	-289.208649
7440.629923	371.302155	-141.545883	-279.565155
7440.633306	366.977203	-140.026306	-271.090607
7440.636162	361.775574	-138.156052	-262.557587
7440.639564	358.151947	-137.045593	-252.855621
7440.642874	353.826996	-135.409119	-245.023956
7440.646157	349.268250	-133.421982	-236.666290
7440.649470	345.293976	-132.662186	-228.717712
7440.652813	340.442993	-131.259506	-221.879608
7440.656158	337.286957	-129.739914	-214.047913
7440.659539	332.611328	-128.395676	-207.326691
7440.662872	328.578583	-126.583870	-200.021027
7440.666227	324.253632	-125.531853	-194.819397
7440.669478	319.694916	-123.486267	-187.221497
7440.672814	316.246643	-122.843369	-181.844543
7440.676141	313.090607	-120.914673	-176.642899
7440.679494	308.473389	-119.862648	-170.097015
7440.682838	304.206879	-118.576859	-164.603149
7440.686206	300.291046	-117.291054	-158.524841
7440.689560	296.667450	-115.888367	-154.083008
7440.692860	292.400940	-114.310341	-148.998245
7440.696147	289.653992	-113.784332	-145.199310
7440.699479	285.387482	-112.147865	-139.588531
7440.702853	282.114532	-110.686737	-136.257172
7440.706154	278.549377	-109.926941	-131.639984
7440.709546	275.743988	-108.290474	-127.782585
7440.712895	272.178833	-107.472237	-123.866745
7440.716202	269.315002	-106.069550	-120.243134
7440.719471	265.808319	-104.374634	-115.918175
7440.722807	262.944458	-103.439507	-112.177673
7440.726155	260.139099	-102.679718	-109.489182
7440.729490	256.340149	-101.978378	-106.450027
7440.732828	254.469910	-101.043251	-103.352425
7440.736237	251.080078	-99.874344	-100.605492
7440.739527	249.034500	-98.530098	-97.274109
7440.742808	246.813553	-97.828758	-95.228516
7440.746157	243.949738	-96.426064	-92.890709
7440.749462	241.670364	-96.250725	-90.202225
7440.752817	239.507889	-95.023376	-88.039742
7440.756160	236.585632	-94.322037	-86.169495
7440.759060	233.955597	-93.445351	-83.539444
7440.762423	231.793106	-92.393333	-81.844536
7440.765710	230.215088	-91.458214	-79.974281
7440.769052	227.994156	-90.406197	-77.870255
7440.772372	225.948563	-89.938629	-75.649323
7440.775709	223.786087	-89.587959	-73.603745
7440.779033	222.967865	-88.711273	-71.616592
7440.782371	220.396271	-88.302162	-70.447693
7440.785705	218.701355	-87.250145	-68.402100
7440.789076	216.421982	-87.016365	-66.648743
7440.792385	214.668625	-86.607246	-66.064285
7440.795720	212.973709	-85.789009	-64.427818
7440.799043	211.863251	-85.379898	-62.849792
7440.802363	209.992996	-84.444771	-61.037987
7440.805746	207.772079	-83.509644	-60.278198
7440.809036	207.129166	-83.217415	-59.050846
7440.812383	205.025131	-82.574516	-57.765049
7440.815696	203.564011	-82.165398	-57.180595
7440.819058	202.453537	-81.347160	-55.777908
7440.822379	200.174179	-80.704269	-54.258327
7440.825719	199.998840	-80.353600	-52.914085
7440.829051	198.771484	-80.470490	-51.686733
7440.832388	197.485687	-79.769142	-50.400936
7440.835702	195.907654	-79.360023	-50.167152
7440.839049	195.323212	-79.067795	-48.822910
7440.842373	193.862076	-78.366447	-47.770893
7440.845699	193.569839	-78.074226	-46.601986
7440.849033	192.810059	-78.834015	-46.426651
7440.852369	191.933380	-77.372887	-44.965515
7440.855713	190.764465	-77.489777	-44.673290
7440.859048	189.829346	-77.781998	-43.913502
7440.862382	189.244888	-77.372887	-43.270599
7440.865694	188.660446	-77.139099	-43.621273
7440.869022	187.666870	-77.139099	-42.861485
7440.872369	187.842194	-76.437759	-41.984802
7440.875702	186.614853	-76.905319	-42.101692
7440.879030	186.205734	-76.320869	-41.809467
7440.882364	185.796616	-75.970192	-41.692577
7440.885270	184.919937	-75.736412	-42.101692
7440.888601	185.095276	-74.918182	-42.101692
7440.891932	183.692581	-75.151962	-41.634132
7440.895267	184.335480	-75.853302	-40.231441
7440.898605	184.277039	-74.976624	-39.997662
7440.901936	184.043259	-74.859734	-40.231441
7440.905287	183.575699	-74.976624	-40.114552
7440.908598	183.400360	-75.794853	-40.172997
7440.911934	183.341919	-75.035072	-39.880772
7440.915268	183.400360	-74.859734	-40.582115
7440.918602	182.640564	-74.801285	-40.406780
7440.921937	183.225021	-75.561073	-40.523670
7440.925269	183.458801	-74.918182	-40.465225
7440.928597	183.049683	-74.742844	-39.880772
7440.931935	183.166565	-75.794853	-40.582115
7440.935261	183.926361	-75.677963	-40.991234
7440.938600	183.692581	-75.502632	-40.991234
7440.941932	183.867920	-76.203979	-40.582115
7440.945266	183.692581	-75.502632	-40.991234
7440.948615	183.984818	-75.853302	-41.166569
7440.951935	184.510818	-76.203979	-42.101692
7440.955262	184.510818	-76.788429	-41.575684
7440.958598	184.978378	-77.372887	-41.575684
7440.961939	185.913513	-77.489777	-41.751022
7440.965261	186.030396	-77.548218	-41.517242
7440.968603	186.439514	-77.723557	-42.452366
7440.971928	187.666870	-78.015778	-43.036819
7440.975265	187.666870	-77.665108	-44.497955
7440.978631	188.426651	-78.541786	-44.147282
7440.981931	189.537109	-78.834015	-44.731735
7440.985261	190.355362	-79.652245	-44.497955
7440.988591	190.706024	-79.886032	-45.491524
7440.991930	191.582703	-80.295151	-46.718876
7440.995254	192.810059	-80.353600	-47.186440
7440.998592	193.511398	-81.288719	-48.004677
7441.001921	194.446518	-81.580948	-49.115135
7441.005259	195.790771	-82.223846	-50.284042
7441.008595	197.251907	-82.632965	-51.569843
7441.011931	197.661026	-83.334305	-52.154293
7441.015264	198.946823	-83.860313	-53.966103
7441.018598	200.583282	-84.620102	-55.251900
7441.021944	201.810638	-85.029221	-56.829922
7441.025257	202.804214	-85.263008	-57.005260
7441.028589	204.148453	-85.672119	-58.349503
7441.031927	205.142029	-86.548805	-59.752190
7441.035258	206.720047	-87.600815	-61.037987
7441.038589	209.116318	-87.659264	-63.317356
7441.041922	209.992996	-88.652832	-63.434250
7441.045253	211.863251	-89.412628	-65.772064
7441.048585	213.850372	-90.289307	-67.291641
7441.051920	214.785507	-90.756866	-67.876099
7441.055260	217.590881	-91.633553	-70.213913
7441.058609	218.584457	-92.510223	-71.324371
7441.061919	220.513153	-93.503799	-73.369957
7441.065258	222.792526	-94.263588	-75.766220
7441.068581	224.253647	-95.140266	-77.285797
7441.071921	226.065460	-95.841614	-79.623611
7441.075254	228.753952	-97.244301	-81.376968
7441.078582	231.267090	-98.413208	-83.481003
7441.081914	232.845139	-98.646988	-85.701927
7441.085259	234.949158	-100.341904	-88.273529
7441.088588	237.754532	-101.627701	-89.968437
7441.091921	239.274124	-102.212158	-93.299820
7441.095246	241.904160	-103.848625	-94.702515
7441.098589	244.534195	-104.199303	-97.390999
7441.101936	246.696686	-106.069550	-100.780823
7441.105255	249.560501	-106.887787	-104.112213
7441.108584	251.956741	-107.881355	-106.391579
7441.111917	254.586792	-109.751610	-109.781418
7441.115246	256.924591	-110.920517	-112.645233
7441.118581	259.963776	-111.855644	-116.736412
7441.121912	262.827576	-113.492111	-119.483337
7441.125243	265.632965	-114.719460	-123.516075
7441.128579	269.081238	-116.297493	-127.198128
7441.131910	271.360596	-117.875511	-131.347748
7441.135244	274.691986	-119.278198	-135.614258
7441.138578	277.205139	-120.447105	-139.763885
7441.141958	280.887177	-122.025131	-144.088837
7441.145258	284.277008	-123.369370	-149.173584
7441.148573	288.192841	-125.356514	-153.732330
7441.151913	291.173584	-126.525421	-159.050842
7441.155246	294.855621	-127.928108	-164.077148
7441.158578	298.011688	-130.149048	-169.921677
7441.161907	302.745758	-131.493286	-176.116882
7441.165239	305.317352	-133.538864	-181.435425
7441.168575	309.291626	-134.707779	-187.572174
7441.171913	313.149017	-137.045593	-194.819397
7441.175241	316.071289	-138.389832	-200.605499
7441.178580	319.753326	-140.376968	-206.742249
7441.181907	324.721191	-141.955002	-214.457031
7441.185241	328.403259	-144.175919	-221.002930
7441.188571	331.968445	-145.461731	-229.302155
7441.191905	335.708923	-147.390411	-236.783173
7441.195240	340.326111	-149.377563	-244.731720
7441.198578	343.891296	-151.481598	-253.907654
7441.201948	347.690216	-153.234970	-261.914673
7441.205240	351.722961	-155.397430	-270.973694
7441.208572	355.405029	-157.092346	-279.682068
7441.211899	359.145538	-159.137939	-289.676208
7441.215240	363.236694	-161.125076	-298.209229
7441.218600	367.620087	-163.112228	-308.787842
7441.221907	371.594391	-164.690247	-318.898865
7441.225236	374.925751	-167.086517	-329.535919
7441.228576	378.490936	-168.606079	-340.289886
7441.231902	383.108124	-170.651672	-352.212738
7441.235238	386.205719	-172.229706	-363.258911
7441.238570	389.829315	-174.216827	-375.766205
7441.241897	393.452942	-176.087082	-388.857971
7441.245240	396.375214	-178.074234	-401.131500
7441.248568	399.998810	-180.061386	-415.450623
7441.251900	403.447113	-181.405624	-428.893036
7441.255234	405.609558	-182.808304	-443.796600
7441.258570	408.940948	-184.035660	-457.472809
7441.261907	412.038544	-186.139694	-472.551727
7441.265231	414.610168	-187.659271	-488.390411
7441.268564	416.889496	-188.652847	-503.293945
7441.271903	419.052002	-189.412628	-519.834045
7441.275241	420.863800	-190.932205	-537.484558
7441.278564	422.324921	-191.867325	-554.784302
7441.281897	422.500305	-192.860901	-572.259460
7441.285231	423.435425	-193.854477	-590.669800
7441.288567	424.312103	-194.146713	-609.547607
7441.291921	423.727631	-194.964935	-626.672119
7441.295225	424.721222	-194.906494	-644.556396
7441.298563	423.318512	-194.906494	-663.200439
7441.301893	422.792511	-195.140274	-682.662781
7441.305228	420.922272	-195.081833	-702.534180
7441.308566	418.701355	-194.438934	-721.119812
7441.311896	416.188171	-193.620697	-740.932739
7441.315226	412.973663	-194.205139	-760.862671
7441.318564	409.466949	-192.159561	-780.149597
7441.321891	405.551117	-191.633545	-799.845703
7441.325270	400.407928	-190.523087	-818.255981
7441.328590	394.914093	-188.652847	-839.120972
7441.331891	389.361755	-186.724136	-858.700195
7441.335246	382.932800	-184.620117	-877.811829
7441.338564	376.211548	-182.282303	-897.800049
7441.341894	367.444763	-179.476929	-915.859741
7441.345225	358.619507	-176.496216	-935.088257
7441.348560	349.794281	-173.515488	-952.095825
7441.351892	340.150787	-170.242554	-971.090637
7441.355223	329.513733	-166.092941	-988.448853
7441.358558	318.409119	-162.352432	-1005.865601
7441.361886	306.369354	-157.969025	-1021.178284
7441.365227	293.686737	-153.644073	-1035.731201
7441.368551	280.478088	-148.851547	-1051.043823
7441.371887	267.035645	-143.416138	-1065.129272
7441.375220	252.541199	-137.980713	-1078.688477
7441.378556	239.040329	-131.960846	-1090.728149
7441.381884	223.201645	-125.882530	-1101.014648
7441.385225	207.129166	-119.102867	-1113.346558
7441.388552	190.589142	-112.732315	-1122.522461
7441.391885	173.815323	-105.426651	-1131.640015
7441.395220	156.457047	-98.296318	-1139.530151
7441.398556	137.812973	-90.756866	-1146.718872
7441.401891	119.402687	-83.334305	-1151.336060
7441.405221	101.109291	-75.502632	-1155.777954
7441.408549	82.640556	-66.852715	-1158.583252
7441.411883	62.769142	-58.670372	-1160.511963
7441.415255	44.125076	-50.721802	-1160.511963
7441.418552	24.487434	-41.779663	-1160.804199
7441.421884	4.031560	-32.954414	-1158.291016
7441.425221	-15.313852	-25.005846	-1156.187012
7441.428548	-34.893044	-15.187026	-1152.388062
7441.431878	-53.946228	-6.420223	-1147.420166
7441.435215	-73.174759	2.346581	-1142.160156
7441.438545	-92.520164	11.288719	-1133.627197
7441.441877	-111.690247	20.347750	-1125.386353
7441.445222	-129.691406	28.880770	-1116.035034
7441.448555	-147.634125	36.770897	-1104.287598
7441.451884	-166.044418	45.946815	-1093.884277
7441.455219	-182.818222	54.070717	-1082.253662
7441.458577	-200.059616	61.610168	-1069.045044
7441.461877	-216.015198	69.558739	-1055.661011
7441.465230	-231.210968	77.098190	-1042.218628
7441.468551	-246.348343	84.403862	-1026.438354
7441.471879	-260.842804	91.475739	-1010.950317
7441.475205	-274.343689	98.547630	-995.579163
7441.478552	-287.844543	105.268852	-978.220947
7441.481880	-300.351868	111.873177	-962.323792
7441.485212	-312.157806	117.893044	-944.790161
7441.488544	-324.080658	123.503792	-927.373413
7441.491872	-334.483917	129.289886	-909.664551
7441.495216	-344.770325	134.491516	-892.423157
7441.498542	-354.764496	139.634705	-871.850403
7441.501876	-362.713043	144.427231	-853.556946
7441.505207	-370.953827	148.869080	-835.322021
7441.508554	-378.785522	153.194031	-816.502625
7441.511904	-384.630066	156.817642	-797.858521
7441.515209	-392.227966	160.908813	-778.630005
7441.518535	-396.903595	163.421967	-760.804199
7441.521881	-402.105194	167.045578	-741.751038
7441.525208	-406.605499	170.143188	-723.399170
7441.528538	-411.865601	172.539444	-705.398010
7441.531872	-415.547638	175.578598	-686.578613
7441.536498	-420.398590	178.734650	-650.985413
7441.539880	-422.736420	180.780243	-632.458252
7441.543256	-423.379303	182.124481	-614.340149
7441.546558	-424.256012	182.241379	-597.332520
7441.549831	-425.541809	183.644058	-579.506714
7441.553203	-425.834015	184.520752	-563.551147
7441.556545	-425.483337	185.222092	-547.011108
7441.559889	-424.489807	185.222092	-529.535950
7441.562783	-423.788422	185.689651	-514.106384
7441.566175	-423.437744	185.864975	-498.326111
7441.569831	-421.041504	184.988312	-482.662781
7441.573153	-419.931061	185.514313	-468.343658
7441.576509	-416.833405	184.170059	-454.258301
7441.579407	-414.846283	183.644058	-439.705444
7441.582802	-412.976044	182.825821	-426.029205
