time (s)	magX	magY	magZ
7297.649466	-200.417892	209.007599	-105.887207
7297.652795	-202.697235	211.871429	-108.809471
7297.656128	-205.035049	213.391022	-111.673294
7297.659459	-207.665100	215.904160	-114.887787
7297.662792	-210.002914	217.540619	-117.985390
7297.666135	-212.340729	219.761566	-121.316772
7297.669463	-215.146118	221.631805	-124.648163
7297.672793	-217.308578	223.034500	-128.330215
7297.676129	-220.347748	225.489182	-131.603149
7297.679482	-223.562256	227.768555	-135.694336
7297.682795	-225.490936	229.638809	-139.376389
7297.686123	-228.062546	232.502625	-143.642899
7297.689463	-230.458786	234.957336	-147.149628
7297.692798	-233.205734	237.353607	-150.714783
7297.696124	-235.426651	240.275864	-154.981293
7297.699461	-238.173584	242.964371	-159.656921
7297.702790	-241.037399	244.893051	-164.449448
7297.706127	-243.725876	248.516647	-169.300400
7297.709460	-246.239029	251.555832	-174.326706
7297.712791	-249.219772	254.478104	-180.054352
7297.716129	-252.317368	257.634125	-185.255997
7297.720806	-257.285217	265.056702	-196.828171
7297.724149	-259.915253	268.154297	-202.088257
7297.727520	-262.486877	272.245453	-209.393921
7297.730796	-265.409149	275.284637	-214.887787
7297.734123	-267.922272	279.784912	-221.199890
7297.737507	-271.019897	283.350067	-227.687317
7297.740838	-273.883698	286.973694	-234.583878
7297.743732	-276.630646	291.298645	-242.766220
7297.747050	-279.611359	294.980713	-251.240799
7297.750363	-282.416718	298.312103	-259.014038
7297.754106	-285.338989	302.403259	-266.670349
7297.757423	-288.495056	305.968445	-275.437164
7297.760340	-292.001770	309.767365	-284.788422
7297.763662	-294.748688	313.624756	-294.198120
7297.767065	-298.138519	317.073029	-303.374054
7297.770409	-301.703705	320.404449	-313.952667
7297.773664	-305.736420	323.794250	-324.005280
7297.776986	-308.483368	327.242554	-333.590302
7297.780303	-312.165405	330.340149	-344.578033
7297.783654	-316.373474	332.619507	-356.091766
7297.786991	-319.763306	336.184662	-367.547058
7297.790384	-323.328461	338.522491	-379.879028
7297.793706	-326.776733	340.801880	-392.503204
7297.797083	-330.575714	343.256561	-404.835205
7297.800299	-334.257751	346.237274	-418.277618
7297.803628	-337.121582	348.399750	-432.012268
7297.806971	-340.569855	350.445343	-445.337830
7297.810323	-343.667450	351.964935	-460.066040
7297.813675	-346.998840	353.835175	-473.859161
7297.817033	-350.680908	355.413208	-489.054962
7297.820387	-352.258911	356.056091	-504.601440
7297.823659	-354.713623	357.809448	-519.972534
7297.826962	-357.109894	359.153717	-536.746338
7297.830294	-358.571045	360.030365	-553.520142
7297.833688	-359.739929	360.731720	-570.469299
7297.836998	-361.025726	362.134399	-587.652222
7297.840394	-362.194641	362.485077	-604.835144
7297.843708	-361.610168	362.543549	-621.550537
7297.847031	-361.668640	362.251312	-641.421936
7297.850294	-361.142609	362.601990	-658.955566
7297.853633	-360.032166	362.368195	-678.417847
7297.856952	-358.220337	361.316193	-697.529480
7297.860313	-356.350098	360.790161	-716.991760
7297.863655	-353.836945	359.153717	-737.213867
7297.866559	-351.323792	357.283447	-758.254211
7297.869898	-347.232635	354.302734	-776.956726
7297.873228	-343.141449	351.263580	-797.529480
7297.876579	-338.699615	347.639984	-818.160706
7297.879863	-333.848633	343.256561	-839.785522
7297.883208	-329.114563	337.528931	-861.351868
7297.886535	-323.211578	331.625946	-882.333740
7297.889865	-317.250153	325.839844	-904.367615
7297.893197	-311.171844	318.066620	-924.940369
7297.896532	-303.807739	310.118073	-947.500305
7297.899894	-296.443604	301.000580	-969.475708
7297.903223	-288.495056	291.357086	-991.684998
7297.906556	-280.780273	280.486267	-1013.075989
7297.909932	-271.428986	269.790741	-1033.356567
7297.913214	-262.954437	257.751007	-1054.922852
7297.916544	-253.836929	244.367050	-1076.313843
7297.919902	-243.959671	231.099930	-1095.951538
7297.923193	-233.731735	217.306854	-1117.167236
7297.926528	-223.270020	202.929276	-1136.220337
7297.929866	-211.814728	187.382812	-1154.396851
7297.933193	-199.541199	170.901230	-1171.872070
7297.936574	-187.267670	154.244308	-1190.106934
7297.939885	-173.942139	137.587372	-1206.997681
7297.943215	-160.324371	120.930443	-1222.544067
7297.946536	-146.239044	103.455284	-1237.447754
7297.949859	-132.036819	86.389244	-1249.721313
7297.953194	-117.250137	69.206314	-1262.988281
7297.956520	-101.411446	50.912910	-1273.450073
7297.959857	-85.806541	33.788429	-1283.502686
7297.963211	-68.857384	17.248392	-1291.568115
7297.966522	-52.317356	-0.343658	-1300.977783
7297.969861	-35.192871	-17.526594	-1306.354858
7297.973222	-17.425480	-34.475746	-1311.790161
7297.976100	0.108124	-50.197548	-1315.939819
7297.979432	18.693747	-66.562241	-1317.985474
7297.982773	36.461132	-82.284050	-1319.037476
7297.986093	54.637638	-97.830505	-1318.160767
7297.989427	71.879021	-112.500298	-1316.115234
7297.992783	90.464645	-126.936302	-1313.192871
7297.996099	108.115143	-141.372299	-1308.283447
7297.999431	125.122742	-155.399185	-1301.562256
7298.002766	142.948563	-169.133835	-1294.139648
7298.006094	160.189957	-181.641144	-1284.671631
7298.009428	176.262436	-195.025131	-1274.502075
7298.012763	192.042664	-207.649323	-1262.403931
7298.016091	207.472244	-219.981293	-1249.896606
7298.019429	221.966690	-232.137924	-1236.045044
7298.022778	235.350677	-243.125656	-1221.083008
7298.026093	248.617752	-254.639389	-1204.601440
7298.029428	260.832855	-264.341309	-1187.476929
7298.032760	272.346558	-274.803070	-1168.832886
7298.036095	282.925171	-284.329651	-1149.896606
7298.039424	293.562225	-293.739349	-1129.148560
7298.042758	302.738129	-302.213928	-1109.277100
7298.046097	312.381622	-311.214508	-1088.412109
7298.049429	320.271759	-319.338409	-1065.326172
7298.052778	327.051422	-326.410278	-1044.052002
7298.056105	333.480408	-333.365295	-1021.199890
7298.059424	339.091156	-339.151367	-997.763306
7298.062754	344.701904	-344.937500	-973.859070
7298.066112	349.319092	-350.840454	-950.481018
7298.069424	352.884277	-354.580963	-926.693665
7298.072758	356.390991	-358.496796	-902.263611
7298.076084	358.962585	-362.061981	-877.716492
7298.079428	361.709534	-363.873749	-854.630554
7298.082749	363.813538	-366.562256	-829.674438
7298.086090	365.917572	-367.380493	-807.874329
7298.089420	367.320282	-368.490967	-784.437744
7298.092753	368.898285	-369.133850	-761.410278
7298.096088	368.898285	-369.192291	-739.376343
7298.099416	369.774994	-368.490967	-717.225586
7298.102751	370.300995	-367.438934	-695.367004
7298.106084	370.008759	-366.796021	-673.742187
7298.109442	370.067200	-364.692017	-652.643433
7298.112753	369.833435	-362.880188	-631.895386
7298.116084	369.599640	-360.776154	-611.147278
7298.119412	368.547638	-358.379913	-591.275818
7298.122769	367.554047	-355.457642	-572.281067
7298.126086	365.859131	-352.710693	-553.111084
7298.129415	364.865570	-349.963776	-534.174744
7298.132755	362.761536	-346.281708	-515.822937
7298.136082	361.300385	-342.950348	-498.113953
7298.139413	359.021027	-339.443604	-481.398590
7298.142747	356.215637	-335.995331	-463.864990
7298.146109	353.760956	-332.021027	-447.850952
7298.149409	350.488007	-328.163666	-431.836945
7298.152754	347.507294	-324.773834	-416.290466
7298.156082	344.818817	-321.033325	-401.036224
7298.159414	341.078308	-317.585052	-385.840454
7298.162742	337.454712	-313.552338	-371.521332
7298.166082	333.538879	-309.578033	-358.780273
7298.169408	330.382812	-306.538879	-345.104034
7298.172748	326.116302	-302.973724	-332.888947
7298.176078	322.025146	-299.408539	-320.966095
7298.179417	317.933929	-295.784912	-308.225006
7298.182747	313.375214	-292.395111	-296.419067
7298.186077	308.699585	-289.355927	-285.548218
7298.189469	304.316193	-285.498535	-274.677399
7298.192741	300.634125	-282.284058	-264.624786
7298.196086	296.426056	-279.011139	-254.689072
7298.199414	292.276428	-275.095276	-244.694916
7298.202740	287.834595	-271.763885	-235.343674
7298.206074	283.626526	-268.666290	-226.284637
7298.209413	279.535339	-265.218018	-217.868500
7298.212739	275.911743	-261.302185	-210.095276
7298.216077	271.586761	-258.146118	-201.912918
7298.219406	267.612518	-255.165390	-194.139694
7298.222738	264.281097	-252.360016	-187.886032
7298.226078	260.891266	-248.093506	-180.814133
7298.229401	257.033905	-244.411453	-174.735825
7298.232735	253.702515	-241.430740	-168.306839
7298.236071	250.429581	-238.040909	-161.585617
7298.239405	248.383987	-234.943298	-157.085327
7298.242737	245.052612	-232.021027	-150.890121
7298.246071	241.428986	-228.572754	-145.980713
7298.249402	238.857407	-225.007584	-140.545288
7298.252738	235.876694	-221.793106	-136.629456
7298.256128	233.363525	-218.987732	-132.304504
7298.259411	230.733475	-215.597900	-127.862656
7298.262739	228.044998	-212.850952	-123.596146
7298.266069	225.648758	-209.811798	-119.271187
7298.269403	222.492706	-207.240204	-114.712448
7298.272739	220.680893	-203.850372	-111.614845
7298.276088	218.343079	-200.869659	-108.166565
7298.279403	215.537704	-198.239609	-103.432495
7298.282737	213.492126	-195.784912	-99.925781
7298.286072	210.511398	-192.453537	-96.243721
7298.289398	207.881363	-190.641724	-94.022797
7298.292731	205.835770	-188.187012	-90.457626
7298.296064	203.439514	-185.615417	-87.009354
7298.299401	201.160141	-183.511398	-84.087082
7298.302734	199.231445	-180.998245	-81.983047
7298.306058	196.952087	-178.952652	-78.593224
7298.309397	194.322037	-176.673279	-76.138519
7298.312730	191.867325	-174.978363	-73.391586
7298.316062	189.120407	-172.815903	-72.105789
7298.319421	187.776169	-171.004089	-69.358856
7298.322729	185.672134	-169.659851	-67.021042
7298.326086	183.392746	-167.789597	-64.975456
7298.329396	181.347168	-165.919342	-61.994740
7298.332733	179.535370	-164.224426	-59.832264
7298.336059	176.963776	-162.821732	-57.552895
7298.339398	175.677963	-161.652832	-55.448860
7298.342725	173.983047	-159.957916	-52.760376
7298.346057	171.820572	-158.379898	-50.597897
7298.349395	170.184097	-157.503220	-49.253654
7298.352728	168.313858	-156.217407	-48.961426
7298.356063	166.911163	-155.106949	-47.266510
7298.359391	165.742264	-153.061356	-46.039162
7298.362755	164.514908	-152.535355	-45.396263
7298.366058	162.819992	-150.723541	-43.701347
7298.369389	161.826416	-149.905319	-42.240211
7298.372725	160.657516	-148.911743	-41.655758
7298.376058	159.254822	-148.035065	-40.253071
7298.379389	158.611938	-146.457047	-39.084160
7298.382726	157.735245	-145.229691	-38.382820
7298.386056	156.858566	-144.762131	-37.623028
7298.389393	156.624786	-143.067215	-37.272354
7298.392724	155.280548	-141.781403	-37.155464
7298.396124	154.754532	-141.430740	-36.278786
7298.399402	154.228516	-141.255402	-35.343658
7298.402723	153.527176	-139.677383	-35.402107
7298.406093	153.118057	-138.976028	-33.882523
7298.409394	152.475174	-137.339569	-33.531853
7298.412731	151.832260	-136.170654	-33.531853
7298.416053	151.364700	-136.638214	-33.122734
7298.419390	150.721802	-134.943298	-31.720049
7298.422725	150.546463	-134.358856	-31.427822
7298.426057	150.020462	-133.715958	-30.492697
7298.429390	149.436005	-132.313263	-30.668032
7298.432720	149.202225	-132.430161	-29.148453
7298.436052	148.734650	-132.196381	-28.563999
7298.439386	147.857971	-131.495026	-28.797779
7298.442719	147.215088	-130.559906	-27.862654
7298.446051	146.338409	-129.858566	-26.635302
7298.449405	146.046173	-129.800110	-26.810638
7298.452710	144.994156	-129.507889	-26.518412
7298.456047	145.052597	-129.098770	-26.050850
7298.459387	144.351257	-128.280533	-25.349504
7298.462718	143.766815	-128.222092	-24.881943
7298.466073	143.766815	-127.871429	-24.297489
7298.469397	143.533035	-127.579201	-24.881943
7298.472717	143.007019	-127.929863	-24.648161
7298.476048	142.831680	-127.462303	-24.063707
7298.479387	142.539459	-127.812981	-24.063707
7298.482717	142.714783	-127.754532	-24.180599
7298.486048	142.013443	-127.520752	-24.239044
7298.489384	142.130341	-127.286972	-23.771481
7298.492749	142.188782	-128.046753	-24.940388
7298.496045	141.662781	-128.163635	-24.648161
7298.499379	142.481003	-128.631210	-24.940388
7298.502710	142.597900	-128.631210	-24.765051
7298.506044	142.422562	-128.455872	-24.998833
7298.509376	142.597900	-128.748108	-25.700176
7298.512715	143.299255	-128.923431	-25.875513
7298.516048	144.059036	-128.923431	-26.518412
7298.519376	143.825241	-129.274109	-27.336647
7298.522710	145.286377	-130.209244	-27.570427
7298.526045	145.403275	-129.858566	-27.862654
7298.530732	147.390411	-130.969025	-28.330217
7298.534031	147.565750	-131.027466	-28.680889
7298.537396	147.974869	-131.553482	-28.973116
7298.540757	148.910004	-132.021042	-30.142023
7298.544123	149.436005	-132.021042	-31.369375
7298.546993	150.604919	-132.488602	-32.421394
7298.550299	151.072479	-132.663940	-32.421394
7298.553659	151.773819	-133.715958	-33.064293
7298.557315	153.001175	-134.008179	-33.064293
7298.560258	153.468735	-134.417297	-33.999416
7298.563558	154.111633	-134.826416	-34.408531
7298.566910	155.163651	-135.410858	-35.168324
7298.570244	155.631210	-136.462891	-35.460548
7298.573624	156.332550	-137.456467	-36.454121
7298.576975	157.150803	-138.157806	-36.921684
7298.580235	157.793686	-138.800705	-37.330803
7298.583554	159.254822	-139.677383	-37.681473
7298.586878	159.780838	-140.203384	-38.733490
7298.590275	160.599060	-141.255402	-39.142609
7298.593562	161.534195	-142.248978	-40.194626
7298.596993	162.703094	-143.184097	-41.597313
7298.600321	162.644653	-144.645233	-42.415546
7298.603629	164.222687	-145.755692	-43.467564
7298.606891	165.099365	-147.158386	-44.402687
7298.610255	166.560501	-148.327301	-45.337814
7298.613543	167.378723	-149.379303	-47.032730
7298.616901	168.547638	-151.074219	-48.610756
7298.620257	170.651657	-152.301575	-49.078320
7298.623638	171.820572	-153.645813	-50.364117
7298.627006	173.690826	-154.639389	-52.643486
7298.630286	175.035080	-156.626526	-54.805962
7298.633567	176.963776	-158.496780	-57.377560
7298.636877	178.600235	-160.074814	-59.130920
7298.640246	180.295151	-161.652832	-60.825832
7298.643567	182.106964	-162.880188	-62.871422
7298.646908	184.210999	-164.165970	-64.975456
7298.650339	185.789017	-165.977798	-68.131500
7298.653211	188.243729	-167.731140	-70.469315
7298.656548	189.880188	-170.127411	-72.456459
7298.660218	193.094681	-171.646973	-75.846291
7298.663544	195.257172	-173.575684	-78.125656
7298.666478	198.120987	-175.387497	-80.346581
7298.669786	200.225021	-176.848618	-83.970192
7298.673126	202.855057	-178.718872	-86.600235
7298.676456	204.959091	-180.822906	-89.697838
7298.679808	207.589127	-182.634720	-92.678551
7298.683162	210.686737	-184.446518	-95.483932
7298.686473	213.433655	-186.492096	-98.873764
7298.689830	216.005264	-188.537689	-102.497375
7298.693118	218.635315	-190.407944	-105.536530
7298.696485	221.499130	-192.336639	-109.335480
7298.699775	224.070724	-194.966675	-112.608414
7298.703115	226.992981	-196.486267	-116.874924
7298.706458	228.804794	-199.583862	-120.206314
7298.709789	231.843964	-201.863235	-124.940384
7298.713116	234.883102	-204.025711	-128.797775
7298.716476	237.220917	-206.129745	-132.362946
7298.719806	240.260086	-209.110458	-137.856812
7298.723145	243.533035	-211.389832	-141.947983
7298.726507	245.870850	-214.370544	-146.682053
7298.729780	248.851547	-216.883682	-151.649918
7298.733111	251.715363	-219.747528	-156.325546
7298.736442	254.345413	-222.143768	-161.760956
7298.739808	257.676788	-225.299820	-167.605499
7298.743111	260.540619	-228.631210	-172.514908
7298.746447	263.404449	-232.371719	-180.931030
7298.749801	266.794250	-234.709534	-187.184692
7298.753143	269.658081	-238.157806	-193.379898
7298.756484	273.515472	-241.430740	-200.393341
7298.759836	277.139099	-244.469879	-209.160141
7298.763108	280.587372	-247.742844	-216.232040
7298.766446	284.561646	-251.307999	-224.765060
7298.769384	288.535919	-254.873154	-232.772079
7298.772685	292.627106	-257.386353	-243.116898
7298.776020	295.958496	-261.009949	-252.234375
7298.779355	300.341888	-263.932220	-262.403870
7298.782695	304.900635	-267.146698	-272.514893
7298.786020	308.991821	-270.887207	-283.093506
7298.789354	313.667450	-273.458801	-293.847443
7298.792686	318.226166	-276.147278	-305.068970
7298.796016	322.843353	-279.654022	-316.991821
7298.799350	326.642303	-282.400940	-329.499115
7298.802684	331.493256	-285.907654	-342.415558
7298.806011	335.642883	-288.654602	-355.331970
7298.809350	340.727631	-292.044434	-368.189941
7298.812702	345.169464	-294.031555	-381.515503
7298.816022	349.436005	-296.252472	-396.360596
7298.819347	353.702484	-299.525452	-408.751038
7298.822683	357.618317	-301.045013	-424.005280
7298.826017	361.534180	-303.558167	-438.441284
7298.829349	366.151367	-305.603760	-455.039734
7298.832682	369.424286	-308.467560	-470.294006
7298.836007	373.924591	-310.045593	-486.015778
7298.839346	377.665100	-312.208069	-501.562256
7298.842681	380.587372	-314.078339	-518.628296
7298.846018	383.568085	-316.007019	-535.752747
7298.849345	387.425476	-318.227966	-554.689026
7298.852670	389.237274	-319.864410	-571.930420
7298.856025	391.867340	-320.916443	-590.282288
7298.859342	394.205139	-322.611359	-608.634094
7298.862680	396.133820	-323.897156	-627.979553
7298.866005	398.530090	-325.358276	-648.201599
7298.869342	399.640564	-326.819427	-668.189941
7298.872676	400.751007	-326.819427	-689.054932
7298.876005	400.867889	-328.338989	-709.744568
7298.879338	401.335449	-327.988342	-732.129150
7298.882705	401.160126	-328.222107	-753.520142
7298.886006	401.218567	-327.462311	-776.898315
7298.889344	399.991211	-326.468750	-798.698364
7298.892669	399.173004	-325.884277	-821.316711
7298.896006	396.952057	-323.604919	-844.753357
7298.899363	395.198700	-321.384003	-867.780823
7298.902673	392.743988	-318.987732	-892.094116
7298.906005	390.230835	-315.481018	-916.407349
7298.909337	386.373444	-311.156067	-939.727112
7298.912679	382.457611	-306.363525	-962.696045
7298.916008	378.307983	-301.395691	-985.606628
7298.919334	372.755707	-295.200500	-1008.926331
7298.922671	366.677368	-288.654602	-1030.784912
7298.926003	361.417297	-281.173584	-1052.585083
7298.929338	354.871429	-272.757446	-1074.618896
7298.932675	347.682617	-264.107544	-1095.425537
7298.936000	340.026276	-255.749847	-1116.115234
7298.939335	331.376373	-245.697235	-1135.226807
7298.942678	323.077118	-235.469315	-1152.175903
7298.946004	313.959656	-223.897125	-1169.767944
7298.949331	304.082397	-212.500290	-1185.489746
7298.952663	294.088257	-200.051437	-1201.094727
7298.955996	283.100494	-187.602570	-1215.413818
7298.959334	272.404999	-175.095261	-1227.921143
7298.962665	260.306854	-161.419052	-1239.610229
7298.966001	248.909988	-147.392166	-1249.487427
7298.969332	236.461136	-134.592636	-1259.247803
7298.972667	223.603165	-119.922852	-1266.436646
7298.975996	209.810059	-105.837524	-1274.268311
7298.979333	196.016953	-90.758629	-1280.814209
7298.982665	181.405624	-75.329048	-1286.366455
7298.986014	166.443604	-60.308594	-1289.288696
7298.989328	150.897141	-45.931034	-1291.977295
7298.992661	135.935120	-30.326126	-1293.496826
7298.995994	119.336639	-14.136763	-1293.964355
7298.999325	102.913498	1.059029	-1294.373535
7299.002662	86.665695	16.137930	-1292.269409
7299.006022	70.417885	31.918173	-1289.697876
7299.009355	53.293392	48.224426	-1284.963867
7299.012663	36.285797	63.653999	-1279.294556
7299.015998	18.810637	79.551140	-1272.924072
7299.019328	1.335477	95.389832	-1265.968994
7299.022694	-16.431911	111.754524	-1255.390503
7299.025996	-33.088837	128.411453	-1246.272949
7299.029346	-49.511982	143.490356	-1234.233276
7299.032658	-65.584450	159.796616	-1221.842773
7299.035996	-81.890709	175.985977	-1209.101685
7299.039327	-97.787842	190.831085	-1194.256592
