time (s)	magX	magY	magZ
7821.033922	192.284058	-105.309761	-1269.220337
7821.037254	214.025726	-107.413795	-1258.875488
7821.040585	235.767380	-109.225601	-1245.900635
7821.043919	256.398590	-112.089424	-1232.750488
7821.047255	277.497375	-113.492111	-1217.671509
7821.050584	297.777893	-114.193451	-1202.066650
7821.053915	317.240204	-115.362358	-1184.474609
7821.057245	336.001160	-116.355927	-1167.350098
7821.060636	354.294556	-116.589706	-1148.296997
7821.063958	371.477478	-117.057274	-1129.009888
7821.067253	388.134399	-116.765053	-1108.670898
7821.070578	403.622437	-116.355927	-1088.565796
7821.073916	418.350677	-116.063705	-1066.064331
7821.077244	432.728210	-116.355927	-1044.264160
7821.080581	444.709534	-115.303909	-1021.821106
7821.083917	457.099945	-114.894798	-1000.196350
7821.087247	467.853851	-113.901222	-977.694885
7821.090581	477.731171	-113.082993	-954.550537
7821.093910	488.485077	-112.147865	-930.704773
7821.097248	497.193451	-111.621857	-907.969604
7821.100581	503.973083	-110.862068	-885.701965
7821.103916	510.694336	-109.517830	-863.492676
7821.107249	515.779053	-108.758034	-841.984802
7821.110578	520.805420	-108.232033	-818.197571
7821.113910	524.604309	-107.647575	-797.741638
7821.117244	528.753967	-106.478661	-775.532471
7821.120605	530.624207	-105.835770	-755.777893
7821.123911	533.137390	-105.426651	-734.036194
7821.127243	535.299866	-104.725304	-714.340149
7821.130580	536.059631	-103.907066	-693.533569
7821.133910	536.760986	-103.556396	-673.545288
7821.137270	536.819397	-103.030396	-653.732300
7821.140577	536.176514	-102.445938	-635.555786
7821.143910	535.124512	-101.978378	-616.502625
7821.147245	533.137390	-100.984802	-598.326111
7821.150573	531.208679	-100.341904	-580.266479
7821.153913	529.922852	-99.757454	-562.732910
7821.157243	526.883728	-98.705437	-545.316223
7821.160578	525.597900	-97.887199	-526.672180
7821.163905	522.266541	-97.068962	-509.781433
7821.167262	519.052002	-95.315605	-493.650482
7821.170573	515.194641	-94.672707	-477.285767
7821.173905	511.395660	-93.328461	-461.797760
7821.177241	507.479828	-91.633553	-447.069550
7821.180577	503.154877	-90.581535	-431.172394
7821.183909	499.239044	-88.535942	-417.613098
7821.187240	494.738739	-87.016365	-402.884857
7821.190572	490.589111	-85.847458	-388.448853
7821.193915	484.510773	-84.853882	-374.714203
7821.197235	479.192291	-82.574516	-362.732910
7821.200568	474.575073	-81.230270	-348.881348
7821.203901	469.899445	-79.710693	-336.900055
7821.207239	465.048492	-77.314438	-324.451202
7821.210567	459.905304	-75.561073	-312.703674
7821.213903	454.411438	-74.158386	-301.891296
7821.217238	450.554077	-72.346588	-291.721802
7821.220563	445.235504	-70.651665	-282.487427
7821.223908	439.449432	-69.482758	-271.499695
7821.227235	434.072479	-67.904732	-262.148437
7821.230569	429.630585	-65.976036	-252.797180
7821.233900	423.844513	-66.034485	-243.971954
7821.237231	419.052002	-64.222679	-236.257141
7821.240564	413.850372	-62.761543	-227.490356
7821.243903	408.648743	-61.358856	-220.652252
7821.247233	403.856201	-61.008186	-212.995911
7821.250564	398.713013	-59.839279	-206.157806
7821.253932	393.569824	-58.787262	-198.326141
7821.257234	388.309753	-57.443016	-193.124481
7821.260566	384.452362	-57.267685	-186.344818
7821.263898	380.244293	-56.449448	-180.850952
7821.267241	375.627106	-56.390999	-174.421967
7821.270560	370.542358	-54.754532	-168.518982
7821.273900	365.866730	-54.286964	-164.252472
7821.277235	361.950897	-53.351845	-158.875519
7821.280559	357.392151	-52.708946	-153.089417
7821.285235	348.976013	-52.124489	-143.796616
7821.288620	344.475739	-50.838692	-139.179428
7821.291904	340.910553	-50.371132	-135.029816
7821.295186	336.527161	-49.903564	-131.815308
7821.298625	332.845123	-49.319115	-127.198128
7821.301922	328.870819	-47.974869	-123.457626
7821.304808	325.480988	-47.565750	-119.308006
7821.308131	321.331390	-46.630623	-115.918175
7821.311441	317.941559	-46.805962	-112.119232
7821.315177	314.610138	-45.753944	-108.904732
7821.318507	310.226746	-44.935711	-105.573349
7821.321434	307.187622	-44.059029	-102.066620
7821.324763	303.680878	-43.416130	-98.676796
7821.328135	300.992401	-42.422562	-95.871422
7821.331517	297.602570	-41.896553	-93.182938
7821.334737	293.745178	-41.604324	-89.617767
7821.338070	291.290466	-40.493866	-87.513733
7821.341454	287.725281	-39.850967	-84.708359
7821.344761	285.445923	-39.149620	-81.902977
7821.348088	282.348328	-38.389832	-79.331383
7821.351469	279.309174	-37.688488	-77.227356
7821.354819	277.088226	-36.870255	-74.188194
7821.358065	273.815308	-36.285797	-72.142609
7821.361403	271.828156	-35.701347	-69.921684
7821.364754	269.490356	-35.292229	-68.226768
7821.368081	266.801849	-34.824665	-66.531853
7821.371418	264.814728	-34.298656	-64.252480
7821.374835	262.827576	-34.298656	-62.791351
7821.378180	261.483337	-33.188194	-61.680885
7821.381402	259.203979	-33.305084	-60.044418
7821.384761	257.158386	-32.720634	-58.291058
7821.388069	255.405045	-32.603745	-57.005260
7821.391418	252.833435	-32.253071	-55.018116
7821.394744	251.839874	-32.077732	-53.323200
7821.398156	249.677399	-32.019287	-52.797195
7821.401483	248.917603	-32.486851	-52.680302
7821.404736	247.748688	-31.551723	-51.043835
7821.408072	245.878433	-31.668615	-48.939800
7821.411394	244.183517	-31.434834	-48.355347
7821.414764	244.008179	-31.785507	-48.238457
7821.418088	242.547058	-31.493279	-47.127995
7821.421049	240.910568	-31.201054	-46.134422
7821.424320	240.209244	-31.142609	-45.257744
7821.427694	238.864990	-30.675045	-44.497955
7821.430979	237.170074	-30.850380	-43.562828
7821.434299	236.760971	-30.675045	-43.504383
7821.437635	235.592056	-30.499710	-42.218586
7821.440980	234.715393	-30.499710	-41.458794
7821.444297	233.955597	-29.915257	-40.582115
7821.447627	232.202209	-30.032146	-41.049679
7821.450966	231.325546	-29.330803	-40.056107
7821.454317	231.267090	-28.980129	-39.354763
7821.457649	229.981293	-29.155466	-39.062534
7821.461021	229.104630	-28.804794	-38.010521
7821.464339	228.461716	-28.045004	-37.659847
7821.467633	228.227951	-27.752777	-36.958504
7821.470982	226.766800	-27.577442	-36.315605
7821.474311	226.591461	-27.109879	-36.081825
7821.477625	226.416138	-27.109879	-35.672707
7821.480959	225.656342	-26.876099	-34.971359
7821.484316	225.247238	-26.642315	-34.737579
7821.487673	224.896545	-26.291643	-34.036236
7821.490976	224.545883	-26.116306	-33.510227
7821.494326	224.721207	-26.174751	-33.744011
7821.497627	224.721207	-26.291643	-34.036236
7821.500980	224.019882	-25.590300	-33.685562
7821.504308	223.727646	-25.356518	-32.984219
7821.507666	223.961426	-25.356518	-33.510227
7821.510965	224.078323	-25.473408	-33.042664
7821.514295	224.136780	-25.181183	-33.860901
7821.517654	224.428986	-25.181183	-32.808884
7821.520977	224.253647	-25.122736	-33.627117
7821.524340	224.253647	-25.414963	-34.796024
7821.527223	224.662781	-25.707190	-34.679134
7821.530991	225.188782	-25.882526	-34.445351
7821.533867	225.071899	-25.824081	-34.971359
7821.537202	225.714798	-25.590300	-34.854469
7821.540531	226.883698	-25.765636	-34.679134
7821.543873	227.292816	-26.057861	-35.848042
7821.547200	228.286377	-26.057861	-36.315605
7821.550550	227.877274	-26.992989	-36.432495
7821.553871	229.046173	-26.934544	-37.192284
7821.557202	229.221512	-26.876099	-37.659847
7821.560535	230.507324	-27.051434	-38.419636
7821.563870	231.793106	-27.577442	-39.120979
7821.567195	232.728241	-27.109879	-39.822327
7821.570534	233.429565	-27.635887	-40.114552
7821.573863	234.656921	-26.759207	-40.640560
7821.577200	235.124496	-27.811222	-41.751022
7821.580544	235.767380	-27.168324	-42.101692
7821.583876	237.286972	-28.220341	-42.510811
7821.587193	238.514328	-27.928112	-43.445938
7821.590530	239.800110	-27.402105	-43.913502
7821.593874	240.735245	-27.226768	-44.673290
7821.597197	242.722382	-27.811222	-45.257744
7821.600526	243.306854	-27.460550	-46.368206
7821.603864	245.118637	-27.109879	-46.894215
7821.607199	246.112228	-27.168324	-47.829338
7821.610558	247.456482	-27.051434	-48.764465
7821.613862	249.268265	-26.934544	-49.407364
7821.617196	250.554062	-26.817652	-52.154293
7821.620527	252.424301	-27.109879	-52.563412
7821.623868	253.943893	-26.700760	-54.550556
7821.627190	255.521912	-26.992989	-55.544125
7821.630525	257.976624	-27.343660	-57.005260
7821.633862	259.788422	-27.109879	-58.524837
7821.637190	261.541779	-27.402105	-59.343075
7821.640528	264.054932	-27.168324	-61.563995
7821.643854	265.632965	-27.752777	-62.849792
7821.647233	268.438324	-27.460550	-64.077148
7821.650525	270.483917	-28.161896	-66.298073
7821.653880	273.347748	-28.863239	-69.220337
7821.657196	274.867340	-28.629457	-69.687897
7821.660524	277.731140	-29.213911	-71.967270
7821.663852	280.828735	-29.447693	-73.720627
7821.667194	283.984772	-29.564583	-76.409119
7821.670523	286.030396	-29.915257	-79.156052
7821.673851	289.011108	-30.499710	-81.844536
7821.677186	291.407349	-31.142609	-84.416130
7821.680521	294.563385	-31.785507	-87.104614
7821.683854	297.135010	-32.311516	-89.851547
7821.687184	301.518402	-32.603745	-92.949158
7821.690518	303.973114	-33.246643	-96.222092
7821.693850	307.655182	-33.597313	-99.670364
7821.697210	311.571014	-33.772652	-103.469315
7821.700523	314.785492	-34.240211	-107.326706
7821.703868	317.649323	-34.532440	-110.190529
7821.707187	321.097595	-35.000000	-113.346573
7821.710533	325.305664	-35.584454	-116.794853
7821.713852	328.461700	-35.818237	-120.886032
7821.717186	332.202209	-35.350674	-124.451195
7821.720517	335.592041	-35.818237	-127.665695
7821.723858	339.741669	-35.993572	-132.516663
7821.727187	343.891296	-35.993572	-136.958496
7821.730520	347.807129	-36.519577	-140.523666
7821.733846	352.190521	-35.935127	-145.666870
7821.737185	355.229675	-36.344246	-150.576263
7821.740532	359.379303	-37.045589	-156.070129
7821.743849	363.762695	-37.337814	-160.511978
7821.747179	368.438324	-36.285797	-165.070709
7821.750515	372.880188	-36.578026	-171.207489
7821.753852	376.270020	-36.870255	-177.110474
7821.757184	381.413208	-37.454704	-182.428986
7821.760508	386.088837	-37.746933	-188.039734
7821.763846	390.238464	-37.746933	-194.994751
7821.767176	395.030945	-38.039162	-201.365295
7821.770508	399.414368	-37.630043	-207.151367
7821.773848	405.141998	-38.214497	-214.223267
7821.777209	409.700745	-38.331387	-221.178253
7821.780513	414.668579	-38.974285	-229.185272
7821.783853	419.168884	-39.324959	-237.542969
7821.787177	424.428955	-39.734074	-245.842194
7821.790507	430.156647	-39.617184	-254.199890
7821.793839	435.066010	-40.376976	-263.142029
7821.797175	439.449432	-40.902981	-273.136169
7821.800508	445.352386	-41.896553	-282.019867
7821.803844	450.554077	-42.539452	-291.721802
7821.807180	456.047882	-42.890121	-302.183533
7821.810507	461.074249	-42.948570	-312.645233
7821.813841	466.509644	-43.708359	-323.632935
7821.817176	472.120422	-44.409702	-334.679138
7821.820564	476.211578	-44.818821	-347.712433
7821.823842	482.406799	-45.403275	-359.284637
7821.827179	489.186401	-45.227936	-372.610138
7821.830505	493.569824	-46.221508	-385.409698
7821.833840	497.836334	-46.864407	-398.209229
7821.837168	503.622406	-47.273521	-412.469910
7821.840508	506.661591	-47.507305	-426.204559
7821.843842	511.863220	-47.273521	-440.699005
7821.847172	515.779053	-47.390415	-455.836365
7821.850501	520.220947	-47.215080	-470.447693
7821.853835	524.370605	-47.215080	-485.701904
7821.857170	527.409729	-47.039742	-501.014618
7821.860504	531.091797	-46.338398	-517.028625
7821.863856	534.364685	-45.753944	-534.270020
7821.867162	537.812988	-45.344826	-550.634766
7821.870501	540.092407	-44.234367	-568.285217
7821.873837	543.131531	-43.299240	-585.351257
7821.877186	545.352417	-42.481007	-602.651062
7821.880499	546.346008	-41.195210	-621.002930
7821.883839	548.800720	-40.493866	-639.646973
7821.887166	549.735840	-39.266510	-657.414368
7821.890496	549.852722	-38.389832	-676.584473
7821.893837	550.028076	-36.987144	-696.514343
7821.897166	549.502075	-36.052017	-715.333740
7821.900500	549.385193	-34.707775	-735.380493
7821.903833	548.333191	-33.480423	-754.316772
7821.907184	545.761536	-32.369961	-774.597351
7821.910499	544.417297	-31.317944	-794.293396
7821.913833	540.033936	-29.915257	-815.742859
7821.917169	535.825867	-28.687904	-837.133850
7821.920497	532.085327	-27.694332	-857.531250
7821.923831	526.591492	-26.233198	-877.811829
7821.927160	519.870300	-24.596729	-899.904175
7821.930497	513.967285	-23.778492	-921.996521
7821.933827	507.012238	-22.551140	-942.452332
7821.937214	498.070129	-21.323788	-963.492676
7821.940503	488.835754	-19.921101	-984.357666
7821.943830	477.263580	-18.401520	-1005.281067
7821.947164	466.451202	-17.291059	-1025.152588
7821.950517	454.528320	-14.193456	-1045.842163
7821.953826	442.488617	-13.258329	-1066.122803
7821.957163	429.163055	-11.037406	-1083.656372
7821.960491	415.369965	-9.400936	-1104.170654
7821.963824	399.706573	-6.829341	-1120.710693
7821.967160	384.218567	-4.725308	-1137.952026
7821.970491	367.678558	-2.445939	-1155.076538
7821.973824	351.021606	0.476330	-1170.389282
7821.977157	332.903564	3.340151	-1184.474609
7821.980496	315.136169	5.911747	-1198.209229
7821.983817	296.024536	8.950905	-1212.352905
7821.987161	276.503784	12.983633	-1222.814819
7821.990493	256.983063	16.373465	-1233.334839
7821.993832	237.520767	19.646406	-1241.926392
7821.997173	216.714218	23.912912	-1250.751587
7822.000499	195.966110	27.536528	-1257.355835
7822.003823	173.932220	31.744593	-1264.486206
7822.007156	152.073639	36.011101	-1269.687866
7822.010489	130.799530	39.576271	-1273.194580
7822.013826	108.590294	43.667442	-1274.538818
7822.017154	86.439507	47.992409	-1277.344238
7822.020485	63.938049	51.908241	-1277.519531
7822.023848	41.027466	55.940971	-1277.753418
7822.027148	18.350672	59.623032	-1275.532471
7822.030483	-5.144360	62.954414	-1272.025635
7822.033817	-27.528929	66.402687	-1267.876099
7822.037152	-50.030388	70.084747	-1262.674438
7822.040487	-72.181183	73.416130	-1257.414307
7822.043821	-93.981300	76.221512	-1250.517822
7822.047148	-116.073647	78.442436	-1242.744507
7822.050478	-137.639969	80.955582	-1235.205078
7822.053817	-159.790756	83.234955	-1224.334229
7822.057200	-180.246628	85.806549	-1213.697266
7822.060479	-200.527176	86.858559	-1202.417236
7822.063818	-221.216827	88.904144	-1190.494507
7822.067182	-239.977798	90.248398	-1176.818237
7822.070480	-259.206329	91.651085	-1162.090088
7822.073810	-277.967285	93.112221	-1145.725220
7822.077145	-295.559326	93.462891	-1131.873657
7822.080495	-313.560516	94.748688	-1114.866211
7822.083816	-330.568085	95.625366	-1097.975464
7822.087150	-345.880798	96.618942	-1080.792480
7822.090486	-362.713043	97.320290	-1063.434204
7822.093812	-376.506165	98.080063	-1044.088867
7822.097147	-389.890137	98.430748	-1026.496826
7822.100477	-401.988342	99.307419	-1007.618896
7822.103813	-415.080078	99.365868	-987.981323
7822.107142	-426.476929	99.950317	-967.992981
7822.110500	-436.178833	100.359444	-948.647583
7822.113809	-445.647034	101.586784	-929.477539
7822.117141	-454.413818	101.820564	-909.664551
7822.120499	-463.472809	102.872589	-890.085327
7822.123824	-471.362946	102.872589	-869.804749
7822.127139	-478.493286	104.684395	-851.043823
7822.130480	-484.513153	105.502632	-832.341309
7822.133811	-489.539459	105.151955	-812.469849
7822.137142	-494.565735	106.028641	-793.416687
7822.141799	-501.462341	106.729988	-756.303894
7822.145148	-504.676788	106.613091	-738.478027
7822.148498	-506.839325	106.262428	-719.366455
7822.151820	-509.001740	106.379311	-702.417297
7822.155124	-510.287567	106.554642	-684.591431
7822.158450	-511.456451	106.554642	-667.700745
7822.161767	-512.391541	106.028641	-650.108704
7822.165169	-512.683838	105.619514	-634.386902
7822.168167	-513.092896	105.268852	-616.561096
7822.171394	-512.742249	104.450607	-601.423706
7822.174673	-511.339569	102.463478	-584.591431
7822.177993	-511.047333	101.879013	-569.804749
7822.181317	-509.878448	101.002342	-554.316772
7822.184669	-507.832855	99.774986	-539.296326
7822.188009	-505.319733	98.255409	-523.457642
7822.191385	-504.384613	97.086502	-509.664490
7822.194713	-501.462341	95.450035	-495.170074
7822.198044	-498.949158	94.047348	-481.727661
7822.201314	-497.429596	93.229103	-468.109863
7822.204644	-494.390411	91.592636	-454.784302
7822.207998	-491.351288	90.189949	-442.043243
7822.211336	-487.786133	88.553482	-429.302155
7822.214716	-484.454712	87.150795	-417.145538
7822.218055	-481.357117	85.748100	-404.462860
7822.221414	-477.908813	84.520752	-393.066040
7822.224653	-473.642334	83.410286	-381.727631
7822.228020	-469.258911	82.533607	-369.571014
7822.231339	-464.466400	80.780251	-359.284637
7822.234661	-460.901245	79.728233	-349.173584
7822.238047	-456.751617	79.202217	-338.945648
7822.241413	-451.666840	78.033310	-328.776154
7822.244745	-448.452393	76.572182	-319.892456
7822.247976	-444.010529	75.753952	-309.839844
7822.251310	-439.393341	75.227936	-301.891296
7822.254674	-435.185272	74.292809	-292.832245
7822.258001	-431.269440	73.357689	-284.883698
7822.261436	-426.652252	72.539452	-277.636475
7822.264724	-422.444183	72.071892	-269.571014
7822.268044	-419.112793	71.545876	-263.317352
7822.271314	-414.086517	71.312096	-255.836365
7822.274645	-409.644684	70.376968	-247.478668
7822.277995	-405.670380	70.026299	-241.400330
7822.281326	-401.228546	69.500298	-234.796021
7822.284660	-397.371124	68.974281	-229.419037
7822.287569	-393.338409	67.863823	-222.113373
7822.290906	-389.364105	67.396263	-217.262421
7822.294248	-385.740509	66.402687	-210.950317
7822.297583	-381.415558	65.993576	-205.690247
7822.300885	-378.201050	65.175331	-200.430176
7822.304216	-374.986572	64.532440	-195.988312
7822.307549	-371.187622	63.480423	-191.195801
7822.310881	-367.271790	63.129753	-186.403259
7822.314209	-363.180603	62.369957	-181.669189
7822.317574	-359.732330	60.791939	-177.753357
7822.320893	-356.167175	60.441261	-173.077728
7822.324228	-353.011108	59.798363	-168.694336
7822.327593	-349.562836	59.213913	-163.492706
7822.330877	-345.763885	58.629456	-159.401520
7822.334214	-342.081818	57.168327	-156.362366
7822.337547	-338.867340	56.233192	-152.972534
7822.340899	-335.594421	55.765633	-149.582703
7822.344214	-332.204590	54.655174	-144.965515
7822.347548	-329.282318	54.012276	-141.984802
7822.350905	-327.295166	52.960258	-137.426071
7822.354225	-323.554657	52.083580	-135.789597
7822.357582	-320.457062	51.265343	-132.282867
7822.360880	-318.879028	50.505554	-129.302155
7822.364214	-314.904724	50.154877	-126.730568
7822.367539	-312.216248	49.745766	-123.925186
7822.370916	-309.118652	48.985970	-121.295151
7822.374203	-307.248383	48.927528	-118.957336
7822.377536	-305.085907	48.226189	-115.976624
7822.380872	-302.338989	48.459969	-113.405029
7822.384226	-299.884277	47.992409	-111.359436
7822.387555	-297.195801	47.817062	-108.904732
7822.390891	-294.916443	46.355927	-105.982468
7822.394214	-293.221527	46.648155	-104.112213
7822.397533	-290.123901	46.706604	-103.235535
7822.400902	-288.428986	46.531265	-101.131500
7822.403783	-287.143188	45.946815	-99.261246
7822.407114	-284.922272	45.888367	-97.215668
7822.410444	-283.402710	45.128578	-95.286972
7822.413793	-281.649353	45.011688	-94.176506
7822.417114	-279.545288	44.368790	-93.884277
7822.420448	-278.084167	45.070129	-92.130920
7822.423779	-276.097015	45.128578	-90.669785
7822.427110	-274.343689	44.193451	-89.793106
7822.430444	-273.700775	44.602570	-88.974869
7822.433780	-272.707184	44.427238	-87.922852
7822.437109	-270.953827	43.492111	-86.695496
7822.440461	-270.486267	44.076561	-85.760376
7822.443819	-269.784912	43.901222	-84.649918
7822.447112	-268.265350	43.258331	-83.247223
