time (s)	magX	magY	magZ
4375.509237	451.832275	-322.319122	-837.973633
4375.512595	453.118073	-322.202209	-816.465759
4375.515975	454.170044	-321.676239	-793.672119
4375.519353	454.520721	-321.325562	-773.157776
4375.522623	455.105194	-320.448883	-752.935669
4375.525902	454.871399	-319.572174	-732.012268
4375.529222	454.929840	-318.812408	-713.309753
4375.532556	453.585602	-317.701935	-693.087646
4375.535915	452.533600	-316.123901	-674.209778
4375.539245	451.247803	-314.545898	-655.916443
4375.542640	450.078888	-312.850983	-637.798340
4375.545959	447.682648	-311.097626	-621.609009
4375.549292	445.870789	-309.168915	-604.718262
4375.552542	444.000549	-307.181793	-587.535339
4375.555891	441.604309	-304.902405	-571.404419
4375.559213	439.149597	-302.038605	-555.507324
4375.562146	437.162476	-300.168335	-541.246643
4375.565460	434.123291	-298.005859	-524.531250
4375.568818	431.610168	-294.557587	-510.621246
4375.572152	428.629425	-292.745789	-495.893036
4375.575486	426.116302	-289.531281	-482.509094
4375.578788	423.720062	-286.901245	-469.066620
4375.582137	420.622406	-283.862091	-456.559326
4375.585469	417.875488	-280.355347	-443.701355
4375.588785	414.836334	-277.140869	-431.252502
4375.592165	412.147858	-274.803070	-419.329651
4375.595459	408.816467	-271.413208	-408.575684
4375.598785	406.244873	-268.023376	-396.594391
4375.602128	402.504364	-264.984222	-385.723572
4375.605495	399.231445	-261.419037	-374.385162
4375.608806	396.250732	-259.022797	-364.391022
4375.612148	392.042664	-255.808289	-354.221497
4375.615461	389.412628	-252.535339	-343.642914
4375.618787	385.496796	-249.963760	-333.239624
4375.622117	382.457611	-246.983047	-324.239044
4375.625459	378.717102	-243.943878	-315.355347
4375.628802	375.677948	-241.839859	-306.413208
4375.632113	371.762115	-238.683792	-297.938629
4375.635459	368.080078	-236.287552	-289.464050
4375.638800	364.573334	-234.008179	-281.573914
4375.642141	360.482178	-231.319687	-273.683807
4375.645473	357.092346	-228.455887	-265.910553
4375.648391	353.468719	-226.351837	-258.663361
4375.651698	350.137329	-223.604904	-252.059036
4375.655023	346.396820	-221.325546	-245.279373
4375.658358	343.123901	-219.572159	-238.675049
4375.661697	339.909424	-216.883682	-232.362946
4375.665027	336.461121	-214.838104	-226.693741
4375.668360	332.954407	-213.260086	-220.907654
4375.671689	329.389252	-210.922272	-215.355362
4375.675023	325.999390	-208.818237	-211.147293
4375.678357	323.135590	-207.123322	-206.062546
4375.681695	319.687286	-204.727051	-200.802460
4375.685026	317.466370	-203.090591	-196.243729
4375.688357	314.076538	-200.402100	-192.269440
4375.691719	310.920502	-199.642319	-188.470490
4375.695021	308.991821	-197.655167	-183.502640
4375.698362	306.127991	-196.018692	-179.937469
4375.701687	303.673279	-193.680893	-175.787842
4375.705021	301.043243	-191.752182	-171.988892
4375.708350	298.822296	-190.115723	-169.066620
4375.711687	296.075378	-188.187012	-165.676804
4375.715019	293.737579	-186.550552	-162.286972
4375.718355	291.049072	-184.914078	-158.195801
4375.721722	289.120392	-182.926941	-156.325546
4375.725018	286.841003	-181.524261	-153.052597
4375.728348	285.379883	-179.361771	-149.779663
4375.731687	284.269440	-177.666855	-148.026306
4375.735042	282.048492	-176.088837	-143.759796
4375.738349	279.301575	-174.393921	-141.714203
4375.741684	277.314423	-172.523666	-138.967270
4375.745014	276.437744	-171.646973	-136.220337
4375.748349	274.158386	-169.893631	-133.473404
4375.751686	272.814117	-168.549393	-131.135590
4375.755015	271.645233	-167.029800	-129.323792
4375.758352	269.658081	-165.510223	-126.226181
4375.761680	267.612518	-164.399765	-124.005264
4375.765033	265.859131	-162.763290	-122.310349
4375.768350	264.339569	-161.828171	-119.972534
4375.771681	262.761536	-161.009933	-117.751610
4375.775015	261.943298	-159.782578	-115.355347
4375.778343	260.014618	-158.847458	-113.777328
4375.781730	258.728821	-157.386322	-111.848625
4375.785016	256.975433	-156.684967	-110.445938
4375.788351	255.338989	-155.983627	-108.867912
4375.791678	254.111633	-155.632965	-107.640564
4375.795006	253.293411	-154.464050	-106.296318
4375.798341	252.182922	-154.522491	-104.309174
4375.801683	250.721802	-153.645813	-103.257156
4375.805012	249.786682	-152.944473	-102.380478
4375.808367	248.909988	-152.476913	-101.211578
4375.811680	247.448868	-151.658676	-100.685562
4375.815007	246.747513	-151.717117	-100.451782
4375.818342	245.929276	-151.483337	-98.873764
4375.821680	245.753952	-151.015778	-97.880188
4375.825011	244.877258	-150.139099	-97.938629
4375.828340	244.292816	-150.139099	-96.886620
4375.831677	244.117493	-149.145523	-96.535950
4375.835010	242.890137	-149.905319	-96.068382
4375.838363	243.007004	-148.385727	-95.542374
4375.841674	242.948563	-148.444183	-95.483932
4375.845000	242.481003	-148.561081	-96.009933
4375.848335	242.364105	-147.859726	-95.483932
4375.851680	242.130341	-147.976608	-95.600815
4375.855006	241.721222	-147.567505	-94.198135
4375.858338	241.487442	-147.216827	-94.256577
4375.861669	242.364105	-146.690826	-94.315018
4375.865008	241.370544	-145.814133	-94.256577
4375.868334	242.013443	-145.405029	-94.373466
4375.871673	241.721222	-145.346573	-93.555237
4375.875002	241.370544	-145.405029	-93.905899
4375.878333	241.779678	-144.879013	-94.431915
4375.881677	242.013443	-143.943893	-93.204559
4375.885004	242.305679	-144.236115	-92.912338
4375.888337	242.422577	-143.476318	-92.503220
4375.891669	242.714798	-144.294571	-93.204559
4375.895000	243.123901	-143.710114	-92.561661
4375.898334	243.240799	-143.593216	-93.087669
4375.901670	243.182358	-143.534775	-93.029221
4375.905004	243.357697	-143.710114	-92.853882
4375.908335	243.591461	-143.359436	-93.964348
4375.911663	244.059036	-144.177673	-93.964348
4375.915002	245.169479	-143.885437	-94.081238
4375.918352	244.760391	-144.177673	-94.782578
4375.921679	245.637054	-144.352997	-95.483932
4375.925001	246.338409	-145.697250	-95.893044
4375.928329	246.455307	-145.405029	-96.068382
4375.931663	247.098190	-146.281693	-96.302170
4375.935005	248.091766	-146.164810	-97.178848
4375.938330	248.909988	-147.450607	-96.945068
4375.941659	249.552902	-147.976608	-99.399765
4375.944998	250.371140	-147.742828	-100.218002
4375.948333	251.598495	-148.853287	-101.386909
4375.951667	252.358292	-150.022202	-102.438927
4375.954997	253.234955	-150.548218	-103.490936
4375.958330	254.403870	-151.249557	-105.185852
4375.961703	255.864990	-152.535355	-106.646988
4375.964996	257.150787	-152.886017	-108.166565
4375.968333	258.495026	-154.054932	-109.627701
4375.971657	259.956146	-154.347153	-110.621277
4375.974993	260.891266	-154.990051	-112.316193
4375.978325	263.345978	-156.158966	-114.712448
4375.981664	265.040894	-156.743423	-117.225601
4375.984991	266.969604	-158.263000	-118.569839
4375.988345	268.196960	-158.263000	-119.563416
4375.991660	269.658081	-159.022781	-122.719467
4375.994990	271.528351	-159.665680	-124.589722
4375.998323	273.807678	-160.542374	-125.817062
4376.001663	274.918182	-161.009933	-127.745758
4376.005024	277.080658	-162.061951	-130.492691
4376.008322	279.067780	-162.821732	-132.772064
4376.011657	281.580933	-162.880188	-133.824081
4376.014986	283.100494	-164.107544	-136.687897
4376.018324	285.263000	-165.393326	-138.850388
4376.021652	287.542358	-166.036224	-141.714203
4376.024991	290.230835	-166.796021	-144.052017
4376.028324	292.042664	-167.848038	-147.149628
4376.031650	294.029785	-168.958496	-149.428986
4376.034983	296.250732	-169.776733	-152.117477
4376.038319	298.530090	-170.536514	-154.864410
4376.041655	300.575684	-172.114548	-157.436005
4376.044989	302.855042	-173.049683	-161.059616
4376.048334	305.368195	-174.861481	-164.332550
4376.051652	307.998230	-176.322617	-167.021042
4376.055005	310.219177	-177.374634	-170.819992
4376.058326	312.849213	-179.011093	-174.443604
4376.061653	315.362366	-180.939804	-179.060791
4376.064989	318.810638	-182.400940	-182.976624
4376.068320	321.382202	-183.452942	-186.658691
4376.071653	324.421387	-185.556976	-192.327896
4376.074984	326.700745	-186.901230	-196.535950
4376.078320	329.739899	-188.888367	-201.971375
4376.081650	333.363495	-190.583282	-206.705429
4376.084983	335.759796	-192.336639	-212.257751
4376.088313	339.324951	-194.031555	-218.102280
4376.091680	343.065460	-196.135590	-223.187027
4376.094980	346.689056	-198.298065	-229.908249
4376.098315	350.195801	-200.109879	-236.161896
4376.101646	353.118042	-202.389236	-242.298660
4376.104984	356.916992	-203.908813	-249.019882
4376.108313	360.774384	-206.071289	-255.507324
4376.111648	363.988861	-208.233780	-263.222076
4376.114976	368.606079	-209.987137	-270.352417
4376.118318	372.872559	-211.974274	-277.365875
4376.121652	376.437744	-213.376968	-285.022186
4376.125006	380.353607	-215.364120	-292.912323
4376.128312	384.210968	-216.708359	-299.575104
4376.131650	388.126831	-218.987732	-308.108124
4376.134991	393.270020	-220.448853	-316.056702
4376.138311	396.542969	-221.968445	-325.057281
4376.141642	400.751007	-223.488022	-333.999420
4376.144975	404.783752	-225.066040	-342.240204
4376.148313	409.751617	-226.760956	-350.890137
4376.152940	417.641724	-229.858566	-370.177094
4376.156342	422.141998	-231.319687	-380.112823
4376.159690	425.824036	-233.073044	-389.990051
4376.162991	429.564545	-234.125076	-400.159576
4376.166297	433.655762	-235.819992	-411.381073
4376.169644	438.039124	-237.807129	-422.777924
4376.173007	441.838104	-239.385147	-433.940979
4376.176364	446.163055	-241.430740	-446.506744
4376.179276	449.728210	-242.541199	-458.488037
4376.182590	453.702515	-244.411453	-470.294006
4376.185844	457.501434	-246.457031	-484.204010
4376.189160	460.949738	-247.742844	-497.587952
4376.192488	464.924011	-249.671539	-510.796631
4376.195847	467.963135	-251.892456	-525.641724
4376.199181	471.119232	-253.587372	-542.240234
4376.202569	475.268829	-254.288727	-557.319092
4376.205893	477.139069	-256.509644	-573.157776
4376.209227	480.704224	-257.737000	-589.639343
4376.212485	483.860321	-258.672119	-605.594910
4376.215816	485.321442	-260.133240	-623.303894
4376.219154	488.302155	-261.419037	-640.779053
4376.222518	492.042664	-262.120392	-658.721802
4376.225851	494.029785	-263.406189	-677.073608
4376.229233	495.315582	-263.698425	-695.776123
4376.232558	496.835144	-263.932220	-715.063110
4376.235836	497.887207	-264.282867	-734.992920
4376.239148	499.056091	-264.341309	-754.396851
4376.242485	499.640533	-263.698425	-774.735779
4376.245848	500.634125	-263.581512	-793.496765
4376.249180	500.517242	-262.412628	-814.069519
4376.252589	500.517242	-261.302185	-833.882507
4376.255924	500.225006	-260.133240	-853.344788
4376.259222	499.465210	-257.561676	-873.917542
4376.262485	498.120941	-256.100525	-894.607239
4376.265814	496.426025	-253.821167	-914.069519
4376.269145	494.438904	-252.067780	-934.642273
4376.272506	492.451782	-248.619507	-955.857910
4376.275846	488.594360	-245.521912	-975.612488
4376.278748	485.204529	-242.658096	-995.834595
4376.282107	481.230286	-238.683792	-1015.881287
4376.285415	477.489777	-235.177094	-1035.285156
4376.288724	473.047913	-230.618332	-1053.870850
4376.292058	468.021606	-226.644058	-1073.449951
4376.295408	462.235535	-221.793106	-1093.146118
4376.298717	455.981842	-217.292801	-1111.088867
4376.302050	449.611298	-212.032730	-1130.609619
4376.305383	441.604309	-206.947968	-1148.902954
4376.308732	434.298645	-201.220337	-1167.547119
4376.312072	424.888916	-194.908234	-1185.606689
4376.315415	415.771454	-189.180588	-1202.731201
4376.318750	406.127991	-182.985382	-1220.557007
4376.322064	395.140259	-176.147278	-1236.921753
4376.325409	383.743408	-169.426056	-1254.046143
4376.328720	371.119202	-162.471054	-1268.891357
4376.332050	359.079468	-155.282288	-1284.262451
4376.335378	344.760376	-147.158386	-1298.464722
4376.338728	331.084167	-139.034485	-1312.608521
4376.342047	316.706573	-130.267670	-1324.589722
4376.345377	301.043243	-121.734665	-1338.207520
4376.348740	285.263000	-112.383408	-1349.253662
4376.352078	269.541199	-102.739922	-1358.546509
4376.355444	252.299820	-92.570427	-1368.190063
4376.358713	235.876694	-82.693161	-1377.015259
4376.362055	217.583282	-71.120979	-1384.437744
4376.365375	199.465225	-60.717712	-1389.756348
4376.368741	181.814728	-49.262421	-1394.607300
4376.372048	163.053772	-37.281120	-1397.880249
4376.375373	144.234375	-26.059616	-1400.568726
4376.378285	125.824081	-13.026301	-1402.146729
4376.381622	106.829338	-0.986557	-1402.555908
4376.384956	87.776154	11.403856	-1400.977783
4376.388285	69.365875	23.911165	-1398.990601
4376.391619	51.072472	36.652245	-1394.490356
4376.394950	32.486851	48.925774	-1390.633057
4376.398284	14.251900	61.316185	-1386.366455
4376.401676	-5.385739	73.765045	-1380.112915
4376.404949	-22.744011	86.097015	-1372.982544
4376.408288	-39.985390	99.481003	-1364.683228
4376.411635	-57.577442	111.462303	-1357.085327
4376.414949	-74.409698	122.391579	-1347.324951
4376.418285	-90.832840	135.132675	-1337.506104
4376.421616	-108.366455	146.821747	-1327.278198
4376.424953	-124.029800	157.984818	-1314.946289
4376.428284	-140.043823	168.972534	-1302.731201
4376.431613	-155.414963	180.194046	-1289.873291
4376.434946	-171.312088	190.305084	-1276.197021
4376.438282	-185.864975	200.182358	-1263.105225
4376.441615	-201.002350	210.059616	-1248.376953
4376.444948	-215.263000	219.177094	-1233.765625
4376.448277	-229.523666	228.294556	-1218.277710
4376.451617	-242.907654	237.002914	-1202.555908
4376.454948	-256.642334	245.009933	-1185.314453
4376.458278	-269.675629	252.315628	-1169.125122
4376.461607	-282.825867	260.556396	-1151.883667
4376.464939	-295.800720	267.862061	-1134.583862
4376.468278	-307.489777	274.641724	-1115.589111
4376.471617	-318.477509	281.070709	-1098.230835
4376.474950	-330.108154	287.967255	-1079.236084
4376.478279	-340.920532	293.928680	-1060.475098
4376.481609	-351.499115	299.656311	-1042.240234
4376.484947	-360.616608	305.383972	-1022.602539
4376.488280	-369.850983	309.124481	-1003.374084
4376.491646	-378.559326	314.384552	-984.554626
4376.494946	-386.274109	319.060181	-965.092346
4376.498272	-393.112213	322.625366	-945.746887
4376.501610	-400.417877	325.372284	-926.284546
4376.504937	-407.197540	329.112793	-907.348328
4376.508276	-412.574493	331.392151	-888.295166
4376.511606	-417.717712	334.898895	-868.949646
4376.514937	-422.685547	337.704254	-850.948547
4376.518276	-426.835175	339.399170	-832.070679
4376.521602	-430.283478	342.204559	-815.179993
4376.524941	-433.673309	344.191711	-797.237244
4376.528269	-436.186432	345.886597	-779.586731
4376.531602	-438.582733	346.412628	-762.462280
4376.534947	-440.160736	347.815308	-746.272888
4376.538293	-442.030975	348.750427	-729.265320
4376.541611	-443.492096	349.510223	-715.063110
4376.544941	-444.193481	350.153107	-698.464600
4376.548268	-445.128601	349.627106	-682.859741
4376.551607	-445.420807	350.270020	-667.196350
4376.554937	-444.836365	349.977783	-652.059021
4376.558272	-444.485687	349.977783	-637.798340
4376.561596	-444.544159	348.808868	-624.414368
4376.564969	-444.485687	348.107544	-610.855042
4376.568270	-443.375244	347.055511	-597.412598
4376.571604	-442.966095	346.237274	-583.561035
4376.574930	-441.212769	344.425476	-569.826355
4376.578285	-441.212769	343.139679	-557.962036
4376.581600	-439.751587	341.678528	-545.279358
4376.584933	-438.348938	339.749847	-532.187561
4376.588267	-436.887817	337.353607	-519.504944
4376.591600	-435.602020	335.424896	-507.991211
4376.594933	-433.497986	333.087067	-496.419037
4376.598262	-432.095276	330.749268	-484.905334
4376.601598	-430.341949	328.645233	-473.742249
4376.604927	-428.296356	325.489166	-462.345398
4376.608282	-425.958527	322.976013	-451.299225
4376.611605	-423.503815	320.696655	-439.493286
4376.614928	-422.451813	318.534180	-429.499115
4376.618262	-419.821777	315.728821	-419.621857
4376.621613	-417.016388	313.449432	-408.809479
4376.624932	-414.912354	310.410278	-399.399780
4376.628260	-412.399170	307.780212	-389.464050
4376.631597	-409.710724	304.741089	-380.989471
4376.634926	-407.256012	301.994141	-371.112213
4376.638262	-404.099976	299.305664	-362.403870
4376.641595	-400.943909	297.026276	-352.701935
4376.644930	-398.547638	294.630035	-344.694916
4376.648257	-395.508514	292.058411	-336.921692
4376.651592	-393.170654	289.428375	-329.031555
4376.654925	-389.021027	287.499695	-321.199890
4376.658259	-387.033905	284.811218	-314.361786
4376.661588	-383.936310	282.940979	-306.822327
4376.664925	-381.072479	280.194031	-300.334900
4376.668257	-378.325562	278.265350	-294.081238
4376.671590	-375.578613	275.576843	-288.236694
4376.674922	-371.838104	273.648163	-282.625946
4376.678267	-369.675629	271.427246	-277.599670
4376.681584	-366.753357	269.147858	-270.995331
4376.684920	-363.772644	267.102264	-266.027466
4376.688250	-361.025726	266.517822	-260.825836
4376.691591	-358.687897	263.537109	-255.273529
4376.694950	-356.174744	262.017517	-250.422577
4376.698249	-354.012268	259.621277	-245.980713
4376.701590	-351.265350	258.335480	-241.831100
4376.704919	-348.693756	256.348328	-237.681488
4376.708269	-346.355927	254.419632	-233.765640
4376.711589	-343.901245	252.432510	-229.440689
4376.714923	-341.621887	250.328476	-225.524841
4376.718253	-338.816498	248.458206	-222.193466
4376.721582	-336.595551	246.237289	-217.342499
4376.724917	-334.842194	244.717728	-213.660446
4376.728250	-332.387482	243.548782	-210.387497
4376.731587	-330.049683	241.620102	-206.354767
4376.734916	-327.828766	239.399185	-202.614273
4376.738266	-326.601410	237.528946	-199.224426
4376.741582	-324.380493	235.658691	-195.951492
4376.744932	-321.692017	233.437744	-193.964355
4376.748254	-320.815338	231.742859	-189.756287
4376.751591	-318.302185	229.931046	-186.249557
4376.754919	-316.899506	228.411453	-184.203979
4376.758249	-315.029236	226.307434	-179.703674
4376.761584	-312.808289	225.196960	-176.956757
4376.764911	-310.704285	223.209824	-173.742264
4376.768245	-309.067810	222.157806	-171.462891
4376.771581	-307.782013	220.287552	-169.066620
4376.774917	-305.561096	218.534210	-166.319702
4376.778245	-303.749268	217.482178	-164.040329
4376.781595	-302.171265	216.196396	-161.293396
4376.784908	-300.534790	215.202805	-158.897141
4376.788247	-299.482788	213.391022	-156.968445
4376.791582	-297.787872	213.274124	-154.630630
4376.794908	-296.326721	211.579208	-153.227936
4376.798242	-295.508484	211.053207	-151.065460
4376.801576	-294.456451	210.176514	-149.370544
4376.804912	-292.761566	208.832260	-147.792526
4376.808279	-291.826447	208.598495	-147.383408
4376.811613	-290.715942	207.955597	-145.337814
4376.814911	-289.663971	207.371140	-144.987137
4376.818245	-288.728821	206.494446	-144.110458
4376.821577	-288.027466	206.202225	-143.058441
4376.824924	-286.741699	205.325546	-142.357101
4376.828242	-285.338989	204.916428	-141.363525
4376.831571	-285.397430	204.273529	-140.837524
4376.834913	-284.462311	203.630630	-140.194626
4376.838255	-283.527191	203.396835	-139.493286
4376.841571	-283.351837	202.987747	-138.032150
4376.844905	-282.416718	202.578613	-138.090591
4376.848237	-281.890717	201.760391	-137.681473
4376.851572	-281.949158	201.877274	-137.564590
4376.854926	-281.540039	201.175919	-136.746338
4376.858236	-281.773834	200.182358	-135.986557
4376.861575	-281.072479	200.240799	-134.876099
4376.864902	-281.072479	200.065460	-135.343658
4376.868240	-280.838715	199.247238	-134.057861
4376.871568	-280.721802	199.247238	-134.466980
4376.874904	-280.312714	198.955002	-133.122742
4376.878236	-279.903564	198.253647	-133.298080
4376.881581	-280.020477	198.195221	-132.713623
4376.884904	-279.611359	197.786087	-132.596725
4376.888238	-280.488037	197.669189	-132.713623
4376.891566	-279.962006	197.318527	-132.304504
