time (s)	magX	magY	magZ
7023.303312	241.910599	-428.976624	495.473419
7023.306649	244.014618	-431.782013	511.253693
7023.309999	245.066635	-435.230255	527.501465
7023.313354	246.060196	-437.743408	544.976624
7023.316649	247.579788	-440.548798	561.750488
7023.319977	248.398010	-442.886627	579.634705
7023.323311	249.274704	-445.516663	598.454163
7023.326638	250.209824	-447.679138	616.572205
7023.329980	251.378723	-449.432526	634.573364
7023.333313	251.203384	-451.068970	653.977234
7023.336638	251.378723	-453.640564	672.971985
7023.339979	251.320282	-454.283478	692.258911
7023.343310	250.443604	-455.569275	711.721252
7023.346642	249.566925	-456.562836	732.352478
7023.349974	248.982468	-456.445923	751.873169
7023.353340	247.521347	-457.264191	772.329102
7023.356639	246.410873	-456.913513	792.960327
7023.359973	244.540619	-456.504395	813.591553
7023.363303	242.670364	-455.744598	833.872009
7023.366636	240.800110	-454.575684	854.503235
7023.369968	237.819412	-452.705414	875.134399
7023.373304	235.481598	-451.185852	895.122742
7023.376635	232.676208	-448.789581	916.572266
7023.379974	228.701950	-445.575104	936.852722
7023.383375	225.662781	-442.594391	957.016418
7023.386658	221.396271	-438.561676	977.939880
7023.389972	218.123337	-434.528931	997.226746
7023.393302	214.090607	-429.210419	1016.805969
7023.396674	209.414963	-423.774994	1036.501953
7023.399971	204.680893	-418.164246	1055.730469
7023.403311	200.180603	-411.618347	1074.608398
7023.406632	195.329636	-404.429565	1093.720093
7023.409968	189.718887	-397.299225	1112.656250
7023.413296	183.465225	-389.292236	1129.663940
7023.416632	177.562256	-380.291656	1145.794800
7023.419966	170.782578	-370.648163	1163.679077
7023.423299	164.295151	-360.946228	1179.342407
7023.426630	156.697250	-350.016937	1195.239624
7023.429966	149.333145	-338.678558	1209.850952
7023.433297	141.618347	-326.931030	1223.819336
7023.436633	134.078903	-314.832855	1238.079956
7023.439989	124.376976	-301.448853	1248.950806
7023.443294	115.259491	-288.006409	1261.516602
7023.446634	106.083580	-273.921112	1271.335449
7023.449961	96.615425	-259.075989	1280.511353
7023.453301	87.030396	-245.224426	1289.921143
7023.456626	76.977791	-229.736420	1296.525391
7023.459964	66.165398	-213.839264	1303.655762
7023.463293	55.353012	-197.474579	1307.980713
7023.466630	44.657513	-181.518997	1312.071899
7023.469959	33.845123	-165.212738	1314.935669
7023.473295	22.623611	-147.912918	1316.805908
7023.476629	10.583869	-129.911743	1317.916382
7023.479959	-0.754529	-113.196381	1316.864380
7023.483292	-12.268265	-95.428986	1315.344849
7023.486626	-23.606661	-77.661598	1313.006958
7023.489961	-35.120399	-60.186440	1308.857300
7023.493295	-46.166565	-43.003506	1304.532471
7023.496628	-57.738754	-25.236118	1298.980103
7023.499954	-68.726471	-6.533606	1291.791382
7023.503290	-79.714203	10.415547	1284.544067
7023.506626	-90.526596	27.832260	1276.244873
7023.509961	-100.111626	45.307426	1267.302734
7023.513312	-111.333145	61.905907	1256.957886
7023.516655	-120.976631	78.913498	1246.262329
7023.519958	-130.620102	95.102859	1234.281006
7023.523291	-139.620682	111.526001	1222.942749
7023.526625	-149.088821	127.130920	1210.376953
7023.529950	-157.855637	143.787842	1197.109863
7023.533290	-165.804199	159.042084	1183.199829
7023.536625	-174.337219	174.413208	1169.056030
7023.539953	-181.701340	189.667450	1154.795410
7023.543305	-188.656342	203.694321	1140.300903
7023.546617	-196.078903	218.539459	1124.929810
7023.549953	-202.449448	231.748108	1109.032715
7023.553290	-208.878433	245.132080	1093.895386
7023.557972	-221.210388	270.906494	1059.237305
7023.561351	-226.645813	283.589142	1041.762085
7023.564688	-231.379898	295.745758	1024.520630
7023.567566	-236.347748	306.675049	1007.104065
7023.571249	-240.672684	317.370544	989.804260
7023.574633	-245.231430	327.189362	971.861511
7023.578007	-249.381058	337.008179	953.451233
7023.580884	-253.063126	346.125641	935.157837
7023.584226	-256.978973	355.535370	916.981262
7023.587535	-260.193451	363.250153	898.512634
7023.590797	-263.291077	371.198700	879.810120
7023.594131	-266.388672	378.796600	861.867371
7023.597464	-268.726501	384.874908	844.041504
7023.600833	-272.057861	391.303925	826.215698
7023.604182	-274.103455	396.622437	807.396301
7023.607536	-275.973694	401.414978	791.265320
7023.610878	-277.843933	406.149048	773.322632
7023.614124	-279.772644	409.947968	756.607300
7023.617462	-280.883118	413.454712	739.365845
7023.620795	-282.402710	416.610779	723.059631
7023.624201	-283.863831	419.766815	706.110474
7023.627483	-283.922302	421.052612	689.336670
7023.630901	-285.149628	422.689056	674.959106
7023.634218	-285.617187	424.617767	660.172424
7023.637460	-286.201630	425.962036	644.509094
7023.640800	-286.260101	426.546478	630.599060
7023.644147	-286.143188	427.715363	616.163086
7023.647473	-285.617187	428.066071	601.727051
7023.650812	-285.617187	427.890686	587.466431
7023.654211	-284.623627	427.072479	575.134399
7023.657534	-283.513153	427.306274	561.516663
7023.660860	-283.104034	426.721802	548.775574
7023.664120	-282.052032	425.786682	536.443604
7023.667459	-280.707794	425.143768	523.819397
7023.670786	-279.655762	423.974854	511.312103
7023.673736	-278.253082	422.805969	499.856781
7023.677480	-277.317963	421.637054	488.869049
7023.680391	-275.623047	420.175934	477.004669
7023.683730	-273.519012	418.539429	467.419647
7023.687110	-272.174774	416.493835	456.315002
7023.690374	-270.012268	414.798920	446.262421
7023.693691	-268.258911	412.753357	435.683807
7023.697033	-266.213348	411.233765	425.222076
7023.700353	-264.401520	409.071320	414.175903
7023.703700	-262.005280	407.025726	404.766205
7023.707033	-260.193451	404.921692	396.233185
7023.710368	-257.797211	402.525421	386.122162
7023.713724	-255.810043	400.187592	376.420227
7023.717078	-253.939804	397.499146	368.237854
7023.720393	-252.011093	395.278229	359.412598
7023.723761	-249.673264	392.706604	350.528931
7023.727026	-247.919907	389.492126	342.054352
7023.730373	-246.283463	387.154297	334.164215
7023.733682	-244.530075	383.706024	326.800110
7023.737022	-241.841614	380.666870	318.734650
7023.740365	-240.438919	378.329041	311.604309
7023.743686	-238.393341	376.108124	304.415527
7023.747039	-236.756851	372.776764	297.168335
7023.750384	-234.652832	369.971375	290.213318
7023.753759	-232.957916	366.464630	283.784332
7023.757041	-231.379898	363.367035	277.413788
7023.760388	-229.568085	360.386322	270.867889
7023.763692	-228.340729	358.223846	265.140259
7023.767020	-226.762711	355.126251	260.113953
7023.769931	-225.126251	352.496185	254.386292
7023.773270	-223.665100	349.749268	248.424896
7023.776593	-221.911743	346.476318	242.755707
7023.779926	-220.216827	343.261841	238.196930
7023.783259	-218.814133	340.456451	233.872009
7023.786599	-216.534760	337.709534	228.319702
7023.789926	-214.956741	335.371704	224.170074
7023.793264	-213.261826	332.507904	219.786652
7023.796617	-211.917603	330.637634	215.695496
7023.799930	-210.865570	328.241364	211.954987
7023.803268	-208.936859	325.377563	208.565155
7023.806597	-207.592636	323.390411	204.123291
7023.809924	-206.189941	321.169495	201.259491
7023.813262	-204.728806	318.773224	197.460541
7023.816650	-202.917007	316.961426	193.544708
7023.819928	-201.514328	314.623627	190.563995
7023.823257	-200.520737	312.753357	188.459961
7023.826600	-198.416718	310.473999	185.420807
7023.829925	-197.072464	309.012878	182.323212
7023.833256	-196.078903	307.376404	179.693146
7023.836590	-194.267090	305.097015	176.537109
7023.839960	-192.630630	303.226746	174.257751
7023.843256	-191.461716	302.057861	171.101685
7023.846593	-190.409683	300.070709	168.530090
7023.849921	-188.890121	298.083557	166.192261
7023.853251	-187.838104	296.797791	164.088257
7023.856589	-187.253647	295.161285	161.867340
7023.859919	-185.208069	293.700165	158.828156
7023.863255	-184.389816	291.771484	157.717712
7023.866586	-183.337814	291.070129	155.672119
7023.869926	-182.870255	288.498535	152.983612
7023.873252	-181.000000	287.504974	149.652252
7023.876585	-180.415543	285.693176	148.307983
7023.879923	-179.480408	284.407349	145.619507
7023.883267	-178.545288	282.887787	143.866150
7023.886603	-177.434830	282.069550	143.047913
7023.889919	-177.317932	280.199280	141.119232
7023.893251	-175.856796	278.445953	139.950317
7023.896583	-175.506134	277.861481	137.670959
7023.899920	-174.921677	276.867920	135.742249
7023.903251	-174.337219	275.231445	134.982452
7023.906583	-173.343658	274.004089	133.696655
7023.909919	-172.876083	272.835175	132.469330
7023.913253	-172.642303	271.841614	130.423737
7023.916583	-171.824081	270.906494	130.248413
7023.919919	-171.414948	270.146698	129.488617
7023.923253	-171.473404	269.211578	128.202789
7023.926614	-170.947388	268.451782	128.261261
7023.929913	-170.655167	267.516663	125.981880
7023.933248	-170.772049	267.458191	126.507881
7023.936579	-169.953827	266.932190	125.338982
7023.939914	-169.135590	266.230835	125.455879
7023.943250	-169.077133	266.347748	124.228523
7023.946579	-168.258911	266.289307	124.696083
7023.949914	-168.434250	265.821747	124.170067
7023.953250	-168.025131	265.880188	123.176506
7023.956651	-167.908234	265.412628	124.053185
7023.959954	-167.557571	264.828156	123.527168
7023.963245	-168.375793	264.886627	122.884285
7023.966579	-166.856216	264.477509	123.410286
7023.969944	-166.856216	264.652832	123.118065
7023.973246	-166.680878	264.945068	121.890709
7023.976584	-166.154877	265.061951	122.942726
7023.979914	-166.563995	265.354187	122.825829
7023.983244	-166.563995	266.113983	123.001167
7023.986575	-165.570419	265.763275	123.760963
7023.989910	-165.979538	266.055511	123.118065
7023.993240	-165.804199	265.997070	123.877861
7023.996577	-166.271759	267.107544	124.286964
7023.999908	-165.921097	267.458191	125.397423
7024.003244	-165.687317	267.165985	124.637642
7024.006573	-165.804199	267.633545	125.631203
7024.009912	-165.979538	268.101105	125.923439
7024.013261	-166.622437	269.445343	125.748100
7024.016575	-167.031555	268.919342	125.864983
7024.019905	-166.797775	269.737579	127.384575
7024.023238	-166.505539	269.679138	127.501457
7024.026572	-166.680878	269.912903	126.917015
7024.029901	-167.849777	271.023376	128.261261
7024.033257	-168.142014	271.900055	129.430145
7024.036578	-168.200455	273.068970	130.774384
7024.039900	-169.135590	273.010529	131.767975
7024.043237	-170.012268	273.770325	132.060211
7024.046568	-170.479828	274.471649	132.703094
7024.049900	-170.772049	275.815887	134.573334
7024.053238	-171.824081	275.757446	135.333130
7024.056604	-172.642303	277.803040	136.677368
7024.059897	-172.759201	278.387512	138.138519
7024.063255	-173.460541	279.731720	139.716522
7024.066568	-174.220322	280.549988	141.820557
7024.069898	-175.330795	282.303345	142.872589
7024.073231	-175.564575	282.887787	145.268860
7024.076564	-176.090576	284.524261	147.022217
7024.079902	-177.259491	285.985382	148.307983
7024.083233	-178.194626	287.797180	150.178253
7024.086563	-179.597305	289.258331	152.691406
7024.089900	-179.480408	291.011688	154.970764
7024.093233	-179.947983	292.005249	155.905884
7024.096570	-181.584442	293.992401	159.061951
7024.099903	-182.402695	295.804230	161.516663
7024.103270	-182.987137	297.674469	163.679138
7024.106583	-183.396255	299.369385	166.192261
7024.109900	-184.915833	301.648743	168.237885
7024.113227	-185.383392	303.869659	171.101685
7024.116567	-186.435410	305.564575	173.556396
7024.119899	-187.370544	307.727051	177.238434
7024.123231	-188.364105	310.240204	179.751617
7024.126564	-189.299225	312.519592	182.264771
7024.129898	-189.474564	314.389832	185.713043
7024.133230	-190.877258	317.253662	189.044403
7024.136563	-192.279938	318.656342	191.791351
7024.139893	-193.624191	321.461731	194.947388
7024.143261	-194.267090	323.974884	197.986572
7024.146559	-195.552872	326.137360	202.428375
7024.149907	-196.663361	328.241364	205.350647
7024.153229	-197.949158	331.105225	209.208069
7024.156566	-199.234940	332.624786	212.831665
7024.159890	-200.462296	334.787262	216.630615
7024.163228	-201.631195	337.475769	221.130920
7024.166562	-202.975449	340.456451	225.338989
7024.169894	-204.670364	343.261841	229.780823
7024.173225	-205.547058	346.300995	233.345978
7024.176555	-207.358841	348.697266	238.255402
7024.179890	-208.936859	351.210419	242.054352
7024.183224	-210.865570	353.665131	247.781982
7024.186594	-212.618927	356.587372	253.275848
7024.189890	-213.437149	359.042084	258.769714
7024.193242	-215.541199	361.321442	263.971344
7024.196554	-216.768555	364.185272	269.289886
7024.199887	-218.989471	367.341339	276.069550
7024.203215	-220.158386	369.503815	281.446503
7024.206559	-221.794846	372.718292	287.232605
7024.209889	-223.898895	375.699005	293.836914
7024.213216	-225.301575	378.913513	300.207458
7024.216553	-226.470474	381.835785	307.513153
7024.219888	-228.866745	384.991821	314.117493
7024.223220	-229.217422	387.212769	321.656921
7024.226557	-230.737000	390.368805	329.079498
7024.229910	-232.782578	393.524841	335.800690
7024.233216	-234.009933	396.505554	344.041504
7024.236552	-234.419037	399.544708	351.756256
7024.239884	-235.880188	402.876099	360.581512
7024.243274	-237.049088	405.330811	369.582092
7024.246550	-238.977798	409.012848	377.939758
7024.249884	-239.737564	412.110474	387.057281
7024.253221	-241.198715	415.091187	395.707214
7024.256549	-242.484497	417.721222	405.467529
7024.259883	-243.478073	420.468140	414.701904
7024.264505	-245.523666	425.962036	435.742249
7024.267937	-246.692581	428.358276	446.203979
7024.271284	-246.867905	430.871429	456.256561
7024.274195	-247.686142	433.092346	467.653412
7024.277898	-248.679703	435.547058	477.004669
7024.281191	-249.731735	437.534180	488.869049
7024.284527	-249.790176	439.287567	499.155426
7024.287441	-250.842209	440.982483	510.201630
7024.291231	-250.842209	442.618958	521.773804
7024.294157	-251.485092	444.898315	533.579773
7024.297505	-252.186447	445.248993	545.268860
7024.300794	-252.654007	446.651642	557.893066
7024.304055	-253.238449	447.586792	570.575745
7024.307389	-253.939804	447.528381	582.147888
7024.310731	-254.232040	448.112793	595.882568
7024.314083	-253.881332	448.463501	610.084778
7024.317425	-253.822891	448.755707	623.468750
7024.320798	-254.232040	448.405029	636.794312
7024.324180	-253.939804	447.469910	650.119812
7024.327388	-253.939804	446.651642	664.614319
7024.330726	-253.355331	445.950317	678.582703
7024.334063	-252.829330	443.670959	694.012329
7024.337421	-252.303329	441.566895	707.805420
7024.340769	-250.725296	439.345978	722.241394
7024.344154	-250.082413	437.125061	738.313843
7024.347472	-248.036819	434.144348	754.620117
7024.350733	-246.634140	431.397430	769.874329
7024.354056	-244.588547	427.540009	785.946777
7024.357386	-242.542969	423.741119	802.194641
7024.360788	-240.263580	419.591492	818.676208
7024.364072	-238.042664	416.143188	834.164307
7024.367480	-235.237289	410.240234	850.236755
7024.370800	-231.847458	404.746338	867.478149
7024.374132	-228.048492	399.427795	883.433655
7024.377385	-224.658691	393.817047	900.207458
7024.380731	-221.093521	386.920502	917.741089
7024.384064	-215.599640	380.140869	934.690247
7024.387407	-211.625366	373.185852	950.295227
7024.390294	-206.131485	365.120392	967.010559
7024.393647	-200.929855	357.230286	982.907654
7024.396979	-195.669769	348.521942	1000.148987
7024.400318	-190.468155	339.404449	1016.338440
7024.403696	-184.156036	330.053192	1032.527710
7024.406957	-177.902390	320.409698	1048.015747
7024.410303	-171.531845	310.006439	1063.912842
7024.413628	-164.518402	299.194031	1078.991821
7024.416958	-157.855637	287.972534	1094.713623
7024.420293	-150.608414	276.809448	1110.201660
7024.423622	-143.419632	264.419067	1123.760864
7024.426974	-136.464630	251.853302	1137.670898
7024.430312	-128.632950	239.521347	1150.879517
7024.433652	-121.444191	227.306244	1164.438965
7024.436978	-113.554062	213.279373	1178.641113
7024.440293	-104.611923	199.486267	1190.856201
7024.443631	-96.721802	185.517822	1202.311523
7024.446972	-88.539459	171.315598	1214.760254
7024.450292	-80.357101	156.528931	1226.566284
7024.453619	-72.466980	141.274689	1236.852661
7024.456957	-63.641731	125.903564	1246.437744
7024.460282	-55.634720	111.175339	1256.198120
7024.463667	-46.049675	95.161308	1264.672607
7024.467008	-37.575104	79.673294	1272.445923
7024.470304	-28.574518	63.250145	1280.511353
7024.473686	-20.392168	47.995911	1287.407837
7024.476953	-10.631794	31.338985	1292.434204
7024.479857	-2.332553	15.792520	1297.752808
7024.483195	6.901812	-0.221507	1302.895874
7024.486527	17.772648	-17.462887	1307.162476
7024.489879	27.065460	-32.658680	1310.084717
7024.493196	35.773819	-48.614258	1310.961426
7024.496522	45.709526	-64.277618	1313.416138
7024.499857	55.586792	-80.525421	1312.773193
7024.503189	64.996490	-95.136765	1313.006958
7024.506527	74.756866	-110.800110	1312.773193
7024.509859	83.640556	-125.528343	1310.610718
7024.513189	93.108704	-139.847458	1307.104004
7024.516523	102.459961	-153.932785	1303.363525
7024.519873	111.694328	-168.018127	1299.155396
7024.523187	121.863815	-181.577438	1295.531860
7024.526522	130.046173	-195.019867	1288.109253
7024.529859	139.806549	-208.696091	1281.388062
7024.533249	149.099350	-221.028061	1273.965454
7024.536525	156.931046	-233.009354	1264.848022
7024.539857	166.106964	-245.165985	1255.964233
7024.543184	173.880188	-256.270599	1246.087036
7024.546517	181.594971	-267.375244	1236.852661
7024.549854	189.426651	-277.895386	1225.338989
7024.553183	196.440094	-288.532440	1213.591431
7024.556522	203.511978	-298.468170	1201.727051
7024.559853	209.824081	-308.111633	1188.810669
7024.563208	216.545288	-317.638214	1176.303345
7024.566513	222.156067	-326.989471	1162.451782
7024.569853	227.825256	-335.347168	1148.658691
7024.573189	233.377579	-343.587952	1134.631714
7024.576514	238.111633	-351.068970	1121.715332
7024.579851	242.962601	-358.491547	1105.935059
7024.583182	246.936890	-365.738739	1090.563965
7024.586512	250.794281	-373.336639	1074.491455
7024.589851	253.950333	-379.414948	1059.120361
7024.593229	257.690826	-385.317932	1043.398560
7024.596520	261.022186	-391.220917	1026.975464
7024.599845	263.535370	-396.013458	1010.669128
7024.603183	266.457611	-401.448853	994.012268
7024.606525	268.094086	-406.416718	977.472229
7024.609846	270.373474	-410.741669	961.925720
7024.613183	272.945038	-414.774414	944.918213
7024.616513	274.113983	-418.047333	927.618347
7024.619846	275.691986	-421.261841	911.721252
7024.623178	277.562256	-423.950348	893.369446
7024.626507	278.088226	-426.989441	876.712463
7024.629843	279.023376	-428.918152	860.640015
7024.633182	280.426056	-431.022217	844.158386
7024.636527	281.770294	-433.301575	826.975525
7024.639844	282.179413	-435.171844	811.545898
7024.643179	282.354767	-436.340759	795.064331
7024.646510	282.705444	-436.925171	778.348999
7024.649841	283.056091	-437.334290	761.867371
7024.653171	284.458771	-437.743408	747.022217
7024.656510	284.400360	-437.977203	731.066650
7024.659844	284.400360	-438.561676	715.870850
7024.663180	283.231415	-437.801880	700.908875
7024.666507	283.640564	-437.860291	686.005249
7024.669842	283.231415	-436.749847	670.575745
7024.673205	283.114532	-435.990051	657.893066
7024.676505	282.763855	-435.054932	642.755676
7024.679840	282.179413	-434.178253	629.254822
7024.683177	282.179413	-433.126251	615.111084
7024.686509	280.601379	-431.314423	602.077759
7024.689836	280.192291	-429.911743	588.693787
7024.693170	279.140259	-428.509033	575.309814
7024.696511	278.438904	-426.463470	563.445374
7024.699832	276.802460	-425.703674	551.230286
7024.703170	276.042664	-424.067200	538.606140
7024.706496	274.698395	-422.021637	526.507935
7024.709839	273.003479	-420.618896	514.760376
