time (s)	magX	magY	magZ
4041.361966	-213.846283	225.377563	178.465790
4041.365289	-211.274673	223.448853	172.387482
4041.368627	-207.767975	221.753937	167.302765
4041.371962	-204.611923	220.234375	162.744019
4041.375293	-201.864990	217.662766	158.243713
4041.378632	-198.650482	215.792511	153.217407
4041.381989	-196.312668	213.688492	149.360016
4041.385352	-193.857956	212.227356	144.742828
4041.388646	-191.111038	209.305069	141.645233
4041.391967	-188.364105	207.434830	136.618927
4041.395296	-186.318527	205.447708	132.820007
4041.398622	-183.863815	203.051422	129.021057
4041.401955	-181.759781	200.888947	125.514320
4041.405288	-179.538864	199.077164	121.189369
4041.408646	-176.616592	197.265350	117.974876
4041.411954	-174.395676	194.226166	114.643486
4041.415316	-171.940964	192.706619	111.019875
4041.418646	-170.129166	190.368805	107.630043
4041.421981	-168.492691	189.082977	105.116890
4041.425333	-166.271759	186.452957	102.019295
4041.428656	-164.109283	184.115143	98.571007
4041.431956	-161.713028	181.952652	96.934547
4041.435295	-160.251892	180.666870	93.544716
4041.438623	-158.206299	179.147278	90.797783
4041.441946	-156.277618	176.751022	87.174171
4041.444862	-154.290466	174.880768	84.661018
4041.448194	-153.004669	173.010513	82.556984
4041.451531	-151.075974	172.075394	80.686729
4041.454859	-149.264160	170.848038	78.056694
4041.458194	-147.452362	168.919342	76.186440
4041.461524	-145.172989	167.516647	73.965523
4041.464855	-144.413208	165.763306	72.562836
4041.468186	-142.367615	164.535950	70.400352
4041.471528	-140.789581	163.951492	69.757454
4041.474855	-139.211563	162.724136	67.068962
4041.478214	-138.393341	161.379898	65.023384
4041.481538	-135.938629	160.737000	63.445351
4041.484871	-134.594391	159.568085	62.334892
4041.488192	-133.250153	158.574509	61.516663
4041.491526	-132.665680	158.165405	60.698418
4041.494857	-130.620102	156.821167	59.412628
4041.498190	-129.509628	156.002914	58.126823
4041.501523	-128.691406	155.360016	57.191704
4041.504851	-127.054939	154.483353	55.964348
4041.508187	-125.535362	154.015778	54.853889
4041.511520	-124.658684	153.314438	54.094093
4041.514888	-123.606651	152.788422	52.983635
4041.518190	-123.080666	151.677963	52.340744
4041.521526	-121.210411	150.918182	52.106956
4041.524849	-121.151955	150.567505	50.938049
4041.528189	-119.807716	149.164810	50.119812
4041.531520	-118.931038	148.405029	48.775574
4041.534858	-118.580360	147.820572	47.898895
4041.538187	-117.703682	147.469910	47.606667
4041.541514	-116.827003	146.476334	47.548218
4041.544869	-116.827003	146.008774	46.379311
4041.548187	-115.950325	145.073639	46.496208
4041.551518	-114.839867	144.898315	45.035065
4041.554851	-114.430740	143.904739	44.509056
4041.558210	-113.670959	143.320282	43.281708
4041.561527	-113.495613	142.794281	42.405029
4041.564854	-112.268272	142.326721	41.645233
4041.568185	-112.326706	141.742264	41.353012
4041.571512	-111.274696	141.566925	41.060783
4041.574854	-111.216248	140.924011	40.125656
4041.578180	-110.456459	140.748688	39.132088
4041.581512	-110.105789	140.281128	38.547638
4041.584849	-110.339569	140.164230	38.956749
4041.588215	-108.995331	139.988892	38.839859
4041.591517	-109.579781	140.339569	38.898308
4041.594845	-109.170662	139.579773	37.670952
4041.598177	-108.001755	139.170670	38.196960
4041.601529	-107.417297	139.521332	38.255409
4041.604844	-107.300415	139.988892	38.080070
4041.608180	-106.657516	139.287552	37.554062
4041.611510	-106.073059	139.345993	37.028053
4041.614843	-106.365288	139.521332	37.261833
4041.618175	-106.014610	139.755112	37.086502
4041.621508	-105.605492	140.456451	36.677376
4041.624840	-104.962601	140.631805	37.203392
4041.628178	-105.021034	140.865585	37.612511
4041.631522	-105.196381	140.982468	37.495621
4041.634843	-104.962601	141.566925	37.963181
4041.638242	-104.904152	142.443604	38.313858
4041.641512	-104.378143	142.969604	37.963181
4041.644835	-104.728821	143.144943	39.073639
4041.648174	-104.319695	143.437180	39.190529
4041.651507	-104.845703	143.846283	40.242546
4041.654839	-104.202805	145.073639	40.008766
4041.658170	-104.845703	145.132095	40.768562
4041.661544	-104.787254	146.125656	40.943893
4041.664842	-104.904152	146.651672	41.995911
4041.668171	-104.962601	147.411453	42.580360
4041.671499	-105.430161	148.112808	43.106369
4041.674849	-105.839279	148.521912	42.521919
4041.678171	-105.722389	148.989471	43.515488
4041.681505	-106.423737	150.099930	43.515488
4041.684840	-107.066635	150.509064	44.450615
4041.688169	-107.943306	151.151962	44.216827
4041.691506	-108.469322	151.444183	44.625954
4041.694843	-109.112213	152.087082	45.327293
4041.698168	-108.644653	152.963760	46.145531
4041.701504	-109.872009	153.840454	46.262421
4041.704853	-109.346001	155.126236	47.548218
4041.708168	-109.872009	155.827591	47.548218
4041.711505	-110.456459	156.528931	48.074226
4041.714868	-111.099365	157.113388	48.541794
4041.718203	-111.391579	158.282303	49.944481
4041.721502	-112.092926	159.275864	50.178261
4041.724832	-113.028053	160.444778	50.879601
4041.728165	-113.437180	161.847458	52.457626
4041.731502	-113.612511	162.607239	53.392754
4041.734835	-114.430740	164.126831	54.152542
4041.738173	-114.664528	164.945053	56.022797
4041.741498	-115.132095	166.639969	57.308594
4041.744830	-115.716545	168.919342	58.594391
4041.748177	-116.534782	169.854477	59.880196
4041.751499	-117.469902	172.367630	61.984222
4041.754832	-118.054359	173.945648	63.153130
4041.758160	-118.288139	175.874344	64.029808
4041.761492	-118.288139	177.978378	66.601402
4041.764830	-119.106377	179.965530	67.478081
4041.768167	-119.866158	181.368210	69.815895
4041.771495	-121.210411	183.822906	71.452362
4041.774831	-121.911751	185.868500	73.088829
4041.778163	-122.788429	187.914093	74.959099
4041.781498	-123.314445	190.076569	77.238457
4041.784846	-124.074226	192.531281	79.751610
4041.788180	-124.717125	194.927536	81.797188
4041.791502	-125.944481	196.973114	84.836357
4041.794826	-126.821159	199.778488	86.881935
4041.798156	-127.931618	202.174759	88.635292
4041.801497	-128.457626	204.746338	92.083580
4041.804822	-129.509628	207.317947	94.187614
4041.808158	-130.678543	208.837509	96.934547
4041.811489	-132.373459	211.642883	99.856819
4041.814829	-132.957916	213.805374	102.603737
4041.818158	-134.068375	216.552307	105.642891
4041.821487	-136.055527	219.474579	108.331383
4041.824826	-136.698410	221.753937	111.896553
4041.828190	-137.691986	223.857971	114.000587
4041.831489	-139.153122	226.955582	117.448860
4041.834820	-140.789581	229.176498	120.838692
4041.838157	-141.900055	231.105209	124.520744
4041.841490	-143.478073	234.378143	128.904144
4041.844818	-145.056091	236.832840	131.651093
4041.848155	-146.108124	239.579773	135.333130
4041.851491	-147.569260	242.852722	139.950317
4041.854821	-148.329041	245.950317	144.275269
4041.858154	-150.023956	248.989502	148.366455
4041.861486	-150.900650	251.970215	152.340729
4041.864833	-152.011108	254.950897	157.016357
4041.868157	-153.589127	258.340759	162.159546
4041.871519	-154.115128	261.789001	167.068970
4041.874819	-155.576263	265.587952	172.913513
4041.878155	-156.336044	268.802460	177.881378
4041.881485	-157.095840	272.309174	183.667450
4041.884818	-158.147858	276.634125	189.336639
4041.888146	-159.667435	280.549988	195.473419
4041.891481	-160.018112	284.641144	201.668640
4041.894811	-161.187027	288.556976	208.623596
4041.898147	-161.479248	293.057281	215.111053
4041.901486	-162.765045	296.680878	222.533600
4041.904818	-163.407944	300.888947	230.248383
4041.908149	-164.518402	304.746338	236.911163
4041.911479	-164.869080	308.837524	245.444183
4041.914827	-164.635300	313.337799	253.158966
4041.918147	-165.453537	316.902985	261.984192
4041.921485	-165.862656	321.227936	270.400330
4041.924817	-166.856216	325.143768	279.050262
4041.928145	-166.680878	328.825836	288.284607
4041.931475	-167.323792	332.916992	297.460541
4041.934842	-167.557571	337.358856	306.578003
4041.939435	-168.142014	343.846313	326.215637
4041.942770	-168.083572	347.937469	337.144958
4041.946199	-167.849777	350.859741	347.255981
4041.949118	-167.791351	354.600250	357.250153
4041.952824	-167.732895	358.223846	368.413177
4041.956163	-166.563995	360.737000	379.634674
4041.959077	-166.563995	363.483948	390.505524
4041.962766	-166.330215	365.997070	402.662170
4041.966110	-165.044403	369.094696	414.234375
4041.969025	-164.752197	370.848053	428.728790
4041.972350	-163.407944	372.426056	439.599640
4041.975767	-162.706589	375.289886	451.814728
4041.979069	-161.362350	376.341888	465.607819
4041.982361	-160.368774	378.153717	477.004669
4041.985658	-158.147858	379.614868	491.323761
4041.989033	-156.160721	380.140869	504.357086
4041.992333	-153.764450	380.842194	518.617798
4041.995682	-151.192856	381.368225	531.826477
4041.999071	-148.270599	381.660431	546.320862
4042.002419	-144.530106	382.303345	560.464661
4042.005756	-141.140259	381.718872	575.368225
4042.008985	-136.873749	380.842194	590.739380
4042.012316	-131.730560	379.965515	605.350708
4042.015654	-127.580956	378.270599	621.189392
4042.019049	-122.203972	376.049683	636.852722
4042.022342	-115.891869	373.536530	651.639404
4042.025730	-109.638229	370.614258	667.653442
4042.029082	-103.384567	367.107544	681.680298
4042.032424	-95.962013	363.659271	698.103455
4042.035646	-88.890121	359.275879	713.007019
4042.038981	-81.292229	354.950897	728.611938
4042.042322	-72.583870	349.340149	744.041504
4042.045669	-64.635300	342.502045	759.354187
4042.049011	-55.634720	335.605499	774.257812
4042.052393	-46.341904	329.410309	789.219788
4042.055753	-37.282875	321.520172	803.305115
4042.058987	-28.223848	313.045563	817.215088
4042.062312	-18.580360	304.103455	830.540588
4042.065231	-8.644653	295.278198	843.866211
4042.068562	1.232613	284.816498	855.730591
4042.071889	11.518995	275.173004	869.348389
4042.075241	22.974285	264.243713	880.569885
4042.078580	33.026886	253.314423	891.732910
4042.081912	43.079483	241.099365	903.188171
4042.085246	53.482758	229.760956	912.773254
4042.088582	63.243134	218.188797	922.650513
4042.091883	74.055527	205.506134	931.592590
4042.095229	84.341904	192.239044	939.658142
4042.098558	94.277611	179.381058	946.671570
4042.101881	104.563995	166.055527	953.451233
4042.105249	115.317940	152.203979	960.230896
4042.108557	125.487434	139.287552	965.900085
4042.111882	136.299835	124.559326	968.763855
4042.115220	146.703110	110.649330	972.796570
4042.118580	156.755707	96.330215	974.374695
4042.121933	167.042084	82.770897	976.712463
4042.125244	176.744019	68.042664	976.712463
4042.128569	187.322617	53.723557	976.829407
4042.131887	197.199890	39.462887	974.316223
4042.135241	207.369385	25.786674	972.504333
4042.138555	216.603745	12.110461	968.588623
4042.141925	226.481003	-1.390415	965.081848
4042.145213	236.650513	-16.177090	959.763306
4042.148563	245.241974	-28.625950	953.158997
4042.151883	253.833435	-42.009933	946.087097
4042.154795	262.308014	-55.043251	938.197021
4042.158123	271.308594	-67.258324	928.904236
4042.161454	278.731140	-78.947395	919.377563
4042.164792	286.504364	-91.513145	908.798950
4042.168119	293.751587	-102.793098	896.291687
4042.171464	300.706604	-112.904152	883.375244
4042.174788	307.836914	-123.774986	871.218628
4042.178115	313.739899	-133.769150	856.724121
4042.181454	319.409119	-144.113968	843.573914
4042.184818	324.318512	-153.173004	828.436646
4042.188122	328.818787	-162.173584	813.123962
4042.191472	332.500854	-170.998825	797.460632
4042.194784	336.007599	-178.304504	781.680359
4042.198119	338.988312	-186.077728	766.017029
4042.201446	341.092316	-193.617187	749.593811
4042.204788	342.904144	-200.279953	733.872009
4042.208115	345.008148	-206.767395	716.981323
4042.211453	345.767944	-212.787262	701.551758
4042.214782	345.709534	-217.579773	683.959656
4042.218117	346.060181	-223.248978	668.997681
4042.221450	345.651093	-227.866165	653.275879
4042.224785	345.417297	-232.483337	637.963196
4042.228140	344.657501	-237.100525	622.475220
4042.231455	342.904144	-240.139694	606.870300
4042.234788	340.683228	-244.113968	591.557617
4042.238115	339.923431	-246.510223	576.069580
4042.241480	338.053192	-249.432495	561.224487
4042.244776	335.540039	-251.302734	545.970215
4042.248110	333.026855	-253.582123	531.768005
4042.251445	330.455292	-255.335464	516.805969
4042.254780	328.292816	-256.855072	502.837555
4042.258117	325.019867	-258.257751	488.576874
4042.261453	322.740479	-258.842224	474.959076
4042.264783	319.467560	-260.244904	462.042633
4042.268116	316.837494	-260.303345	447.548218
4042.271476	313.623016	-260.303345	434.222687
4042.274779	310.642303	-259.718872	419.319122
4042.278119	306.784912	-260.595551	406.578033
4042.281445	303.687317	-259.485107	394.012299
4042.284773	300.472809	-258.900635	380.978943
4042.288112	296.556976	-258.199310	369.523651
4042.291445	293.693146	-256.562836	356.373474
4042.294779	289.660431	-255.861496	344.918182
4042.298107	286.621277	-253.991241	333.053741
4042.301442	282.471649	-252.530090	321.189362
4042.304777	278.906464	-251.244308	310.376984
4042.308107	276.101105	-249.198715	299.973694
4042.311439	272.243713	-247.971359	289.395081
4042.314804	267.977203	-245.984222	278.524261
4042.318104	264.470490	-243.412628	268.296326
4042.321444	261.197540	-241.834595	259.646393
4042.324771	257.515503	-239.730576	250.821167
4042.328108	253.950333	-237.334290	241.645233
4042.331441	250.794281	-235.522507	233.053741
4042.334772	246.410873	-232.950897	224.579193
4042.338107	243.021057	-231.139114	216.864380
4042.341435	239.455887	-229.268860	209.500275
4042.344772	235.715378	-226.814148	202.311523
4042.348105	231.682648	-225.119232	195.590302
4042.351434	228.351257	-222.781418	189.511963
4042.354774	225.019882	-220.385147	183.608978
4042.358123	221.337814	-219.216248	177.647583
4042.361439	218.240204	-217.638229	172.270599
4042.364767	214.791931	-215.241959	165.783173
4042.368108	211.752777	-212.962601	161.224426
4042.371432	208.947403	-211.150787	155.847473
4042.374772	206.142029	-209.455872	151.171844
4042.378104	202.401520	-207.702515	147.372864
4042.381447	199.479248	-206.182922	143.106384
4042.384775	196.849228	-204.254242	138.080078
4042.388101	193.459381	-202.150192	133.988892
4042.391429	190.654007	-200.689072	129.956177
4042.394769	187.556412	-198.701920	125.689659
4042.398101	185.393921	-196.890121	121.773827
4042.401451	182.880783	-195.312103	118.500877
4042.404762	180.309189	-193.324951	114.760368
4042.408098	178.088257	-191.220917	112.188774
4042.411435	175.282883	-189.350677	108.448280
4042.414764	172.711288	-188.123322	104.766228
4042.418098	170.431915	-186.136185	100.616600
4042.421432	168.210983	-183.973709	98.220345
4042.424767	165.347168	-181.869675	94.888954
4042.428100	164.002930	-180.291641	92.025139
4042.431448	161.665115	-179.005844	88.459969
4042.434758	159.619522	-177.018692	85.596138
4042.438095	157.866165	-174.797775	83.550560
4042.441427	156.405029	-173.804214	79.634727
4042.444764	154.476334	-171.758621	78.290474
4042.448096	152.489197	-170.005264	75.777321
4042.451428	150.794281	-168.018127	73.614845
4042.454780	149.157806	-166.030975	71.803040
4042.458098	147.170670	-164.569839	68.763885
4042.461424	145.651093	-163.167145	67.068962
4042.464756	143.371719	-161.822906	64.672707
4042.468094	141.852142	-160.244888	62.276443
4042.471426	140.624786	-158.900635	60.873756
4042.474782	139.163651	-157.731735	58.419052
4042.478086	137.936295	-156.329041	56.899467
4042.481429	135.832260	-155.744598	55.438332
4042.484762	134.838699	-154.458786	52.808304
4042.488100	133.202225	-153.114548	51.756279
4042.491419	131.331970	-152.296310	50.178261
4042.494759	130.104614	-151.302750	49.593803
4042.498096	129.169495	-150.484512	48.191116
4042.501423	127.240791	-149.841614	46.963768
4042.504781	126.188782	-148.848038	46.671539
4042.508090	124.610756	-148.146698	45.444183
4042.511423	124.201630	-147.153122	44.509056
4042.514753	122.857391	-146.744003	43.807716
4042.518091	121.863815	-146.510223	42.814140
4042.521422	120.461128	-145.575104	42.580360
4042.524750	119.876686	-145.049088	41.002342
4042.528086	118.649330	-144.230865	40.710114
4042.531466	117.363525	-144.055511	40.534775
4042.534753	116.428398	-143.003510	39.658096
4042.538083	115.902397	-142.360611	39.190529
4042.541421	114.908829	-142.185272	38.489189
4042.544749	114.324364	-142.126831	37.495621
4042.548124	114.032150	-141.425491	36.735825
4042.551423	112.921677	-141.191711	35.859146
4042.554747	112.161896	-139.964355	35.391579
4042.558086	111.694328	-139.204559	35.040909
4042.561438	111.109879	-139.087662	34.748688
4042.564745	110.116302	-138.444763	33.170662
4042.568082	109.473404	-138.152542	33.462891
4042.571414	109.239624	-137.860321	32.878433
4042.574746	108.362946	-137.275864	32.469315
4042.578087	108.070717	-136.691422	32.060204
4042.581418	107.544708	-136.516068	31.241966
4042.584748	106.901810	-135.347168	31.884865
4042.588082	106.609581	-135.230286	30.774406
4042.591433	105.849792	-134.996490	30.131500
4042.594749	105.557564	-134.704269	29.663940
4042.598077	105.148453	-134.587387	29.021042
4042.601409	104.797783	-133.827591	29.021042
4042.604747	104.622444	-133.418472	28.436592
4042.608077	104.154877	-133.360031	28.319702
4042.611419	104.505547	-132.892471	27.150787
4042.614744	103.979546	-133.769150	28.144363
4042.618075	103.453537	-133.301575	27.735237
4042.621410	103.745766	-133.126251	27.793686
4042.624746	103.804207	-133.243134	27.384567
4042.628078	103.336647	-133.535355	27.618347
4042.631409	103.102859	-133.710693	27.559906
4042.634768	102.752190	-133.652252	27.559906
4042.638080	102.810631	-134.528931	27.618347
4042.641404	102.576851	-133.886032	28.495033
4042.644742	102.869080	-134.879608	29.021042
4042.648077	102.226181	-135.347168	29.021042
4042.652793	102.576851	-136.516068	28.378143
4042.656095	102.635300	-136.691422	29.547050
4042.659441	102.226181	-137.509644	30.248390
4042.662776	102.927521	-138.561661	29.371712
4042.665675	102.985970	-138.561661	30.189949
4042.669369	102.985970	-139.789001	31.183517
4042.672768	102.985970	-139.730576	31.300407
4042.676097	103.161308	-140.782578	32.060204
4042.679044	103.745766	-141.659271	31.651077
4042.682353	103.453537	-141.951492	32.410873
4042.685605	104.271767	-142.535950	33.053772
4042.688910	103.979546	-143.237289	34.105782
4042.692282	104.213326	-143.587952	33.872002
4042.695606	104.154877	-144.990646	34.748688
4042.698944	104.563995	-144.873764	35.274689
4042.702274	105.206894	-146.218002	35.917595
4042.705668	105.031563	-146.568680	36.326706
4042.709027	105.908241	-147.912918	37.437172
4042.712252	106.083580	-147.679138	37.495621
4042.715587	106.551140	-148.263580	38.255409
4042.718917	106.668030	-149.432495	38.898308
4042.722319	107.310928	-149.900070	39.541206
4042.725631	107.953827	-151.419632	39.833435
4042.728995	108.421394	-152.530090	40.242546
4042.732347	108.070717	-153.114548	41.294563
4042.735641	108.772064	-154.049683	42.054359
4042.738910	109.414955	-155.277039	42.405029
4042.742244	110.350082	-156.212158	44.450615
4042.745572	111.051430	-157.381073	44.976624
4042.748932	111.928108	-159.134415	46.087082
4042.752275	111.986549	-160.244888	46.846870
4042.755699	112.454117	-161.472229	47.840446
4042.758992	114.149033	-163.225601	49.476913
4042.762247	114.616600	-164.686737	49.769142
4042.765614	115.551720	-166.323212	51.054939
4042.768921	116.486847	-167.784348	52.340744
4042.772268	117.246635	-169.420807	53.977211
4042.775603	117.480423	-171.057281	55.321449
4042.778560	118.649330	-172.927536	57.951492
4042.781882	119.526001	-174.856216	59.529510
4042.785177	119.818237	-177.135590	61.458214
4042.788546	120.519577	-179.239624	63.620689
4042.791815	121.279373	-181.226761	65.724724
4042.795148	122.272942	-183.447693	68.880768
