time (s)	det(V)
1661.763262	-0.831437	
1661.764736	-0.846531	
1661.766454	-0.866181	
1661.767939	-0.882077	
1661.769638	-0.898187	
1661.771118	-0.914574	
1661.772806	-0.936721	
1661.774301	-0.954027	
1661.775965	-0.971019	
1661.777502	-0.990701	
1661.779123	-1.007277	
1661.780665	-1.022053	
1661.782269	-1.037486	
1661.783844	-1.056616	
1661.785430	-1.067900	
1661.787027	-1.084859	
1661.788566	-1.100916	
1661.790207	-1.119720	
1661.791699	-1.130649	
1661.793408	-1.148953	
1661.794883	-1.162642	
1661.796599	-1.175214	
1661.798072	-1.185354	
1661.799763	-1.199904	
1661.801249	-1.207336	
1661.802930	-1.216762	
1661.804416	-1.227014	
1661.806082	-1.238281	
1661.807585	-1.243289	
1661.809232	-1.247522	
1661.810767	-1.256610	
1661.812386	-1.262403	
1661.813951	-1.266274	
1661.815542	-1.267418	
1661.817123	-1.274182	
1661.818695	-1.272708	
1661.820312	-1.272558	
1661.821835	-1.274371	
1661.823510	-1.277211	
1661.824993	-1.272357	
1661.826718	-1.269747	
1661.828191	-1.267096	
1661.829918	-1.259930	
1661.831396	-1.253956	
1661.833095	-1.247817	
1661.834581	-1.242612	
1661.836279	-1.233605	
1661.837766	-1.223699	
1661.839459	-1.213967	
1661.840961	-1.202711	
1661.842618	-1.188467	
1661.844152	-1.176854	
1661.845796	-1.163463	
1661.847329	-1.144857	
1661.848944	-1.125549	
1661.850514	-1.111961	
1661.852100	-1.087715	
1661.853713	-1.068298	
1661.855260	-1.048374	
1661.856898	-1.027620	
1661.858386	-1.004123	
1661.860083	-0.981331	
1661.861563	-0.959828	
1661.863294	-0.933148	
1661.864837	-0.904338	
1661.866505	-0.877698	
1661.868046	-0.850459	
1661.869763	-0.819413	
1661.871267	-0.790876	
1661.873040	-0.762686	
1661.874523	-0.732333	
1661.876307	-0.700755	
1661.877789	-0.672939	
1661.879545	-0.641570	
1661.881027	-0.607334	
1661.882800	-0.572799	
1661.884293	-0.542305	
1661.886039	-0.503697	
1661.887553	-0.473771	
1661.889292	-0.441250	
1661.890810	-0.413926	
1661.892530	-0.379770	
1661.894061	-0.349735	
1661.895770	-0.314338	
1661.897320	-0.281479	
1661.899013	-0.243129	
1661.900585	-0.212768	
1661.902262	-0.174108	
1661.903846	-0.140943	
1661.905508	-0.107826	
1661.907083	-0.076010	
1661.908730	-0.041536	
1661.910338	-0.010212	
1661.911956	0.023856	
1661.913589	0.061871	
1661.915196	0.095495	
1661.916863	0.126211	
1661.918447	0.161395	
1661.920089	0.197061	
1661.921670	0.227922	
1661.923373	0.256721	
1661.924915	0.293157	
1661.926625	0.324550	
1661.928173	0.354653	
1661.929858	0.388060	
1661.931414	0.416544	
1661.933127	0.448787	
1661.934647	0.480845	
1661.936394	0.515601	
1661.937876	0.545257	
1661.939646	0.575824	
1661.941136	0.606198	
1661.942900	0.636015	
1661.944388	0.664874	
1661.946145	0.698668	
1661.947632	0.729565	
1661.949394	0.761816	
1661.950901	0.789523	
1661.952653	0.825512	
1661.954167	0.854934	
1661.955915	0.881719	
1661.957440	0.908378	
1661.959153	0.942442	
1661.960698	0.966044	
1661.962413	0.991374	
1661.963969	1.016796	
1661.965642	1.044221	
1661.967205	1.068363	
1661.968878	1.095876	
1661.970454	1.119736	
1661.972123	1.137465	
1661.973712	1.159065	
1661.975353	1.179307	
1661.976963	1.196572	
1661.978567	1.213644	
1661.980207	1.230543	
1661.981817	1.244590	
1661.983467	1.255821	
1661.985058	1.268816	
1661.986712	1.283572	
1661.988282	1.293687	
1661.989971	1.303955	
1661.991513	1.313349	
1661.993203	1.318928	
1661.994755	1.325889	
1661.996470	1.330945	
1661.997994	1.335731	
1661.999711	1.336907	
1662.001208	1.338707	
1662.002984	1.341640	
1662.004469	1.338550	
1662.006240	1.335428	
1662.007718	1.331082	
1662.009487	1.324637	
1662.010966	1.319190	
1662.012704	1.309289	
1662.014208	1.304507	
1662.015933	1.294485	
1662.017462	1.282702	
1662.019185	1.274452	
1662.020718	1.263031	
1662.022423	1.247075	
1662.023964	1.234318	
1662.025652	1.226531	
1662.027205	1.208718	
1662.028891	1.190659	
1662.030469	1.173200	
1662.032137	1.159343	
1662.033730	1.140615	
1662.035374	1.122576	
1662.036980	1.103498	
1662.038613	1.083860	
1662.040238	1.062059	
1662.041838	1.044737	
1662.043492	1.020873	
1662.045073	0.998266	
1662.046745	0.979019	
1662.048331	0.958539	
1662.049988	0.938224	
1662.051552	0.917635	
1662.053278	0.899500	
1662.054821	0.877884	
1662.056512	0.853110	
1662.058044	0.835127	
1662.059755	0.812597	
1662.061258	0.793962	
1662.062999	0.773353	
1662.064479	0.757510	
1662.066252	0.735841	
1662.067739	0.718209	
1662.069526	0.699751	
1662.071017	0.678804	
1662.072808	0.659295	
1662.074289	0.641522	
1662.076030	0.625622	
1662.077524	0.606238	
1662.079238	0.590612	
1662.080759	0.578052	
1662.082496	0.561624	
1662.084027	0.546599	
1662.085732	0.531090	
1662.087286	0.517031	
1662.088996	0.496841	
1662.090563	0.484949	
1662.092235	0.471869	
1662.093807	0.457674	
1662.095470	0.442539	
1662.097071	0.430422	
1662.098719	0.418583	
1662.100317	0.407465	
1662.101943	0.400862	
1662.103559	0.391271	
1662.105182	0.378932	
1662.106844	0.364394	
1662.108425	0.354573	
1662.110094	0.341863	
1662.111685	0.329803	
1662.113331	0.321303	
1662.114903	0.312771	
1662.116592	0.301600	
1662.118148	0.292891	
1662.119854	0.285390	
1662.121409	0.273648	
1662.123124	0.264564	
1662.124650	0.255786	
1662.126382	0.246650	
1662.127865	0.236116	
1662.129644	0.226710	
1662.131134	0.222283	
1662.132918	0.213497	
1662.134400	0.206488	
1662.136185	0.200163	
1662.137660	0.191978	
1662.139427	0.183007	
1662.140921	0.176251	
1662.142669	0.169363	
1662.144176	0.162176	
1662.145934	0.156895	
1662.147454	0.152190	
1662.149186	0.147573	
1662.150717	0.140274	
1662.152417	0.137160	
1662.153960	0.131923	
1662.155627	0.125063	
1662.157177	0.119146	
1662.158859	0.114586	
1662.160451	0.106936	
1662.162099	0.102388	
1662.163684	0.101719	
1662.165318	0.098565	
1662.166923	0.092543	
1662.168555	0.088897	
1662.170189	0.090214	
1662.171785	0.085743	
1662.173472	0.077859	
1662.175061	0.078153	
1662.176739	0.069319	
1662.178316	0.067853	
1662.179984	0.066568	
1662.181561	0.064570	
1662.183271	0.061778	
1662.184822	0.061029	
1662.186545	0.059087	
1662.188082	0.056541	
1662.189796	0.053158	
1662.191334	0.047949	
1662.193070	0.046169	
1662.194584	0.043123	
1662.196345	0.043014	
1662.197824	0.043381	
1662.199606	0.039675	
1662.201093	0.038483	
1662.202868	0.039618	
1662.204352	0.037367	
1662.206111	0.035639	
1662.207599	0.034849	
1662.209344	0.033238	
1662.210857	0.027284	
1662.212595	0.027888	
1662.214111	0.026486	
1662.215838	0.028009	
1662.217374	0.026897	
1662.219096	0.026595	
1662.220637	0.026579	
1662.222318	0.025197	
1662.223880	0.022301	
1662.225537	0.022059	
1662.227124	0.018772	
1662.228778	0.017668	
1662.230356	0.018405	
1662.231992	0.018760	
1662.233595	0.018043	
1662.235213	0.019702	
1662.236846	0.021088	
1662.238452	0.019231	
1662.240123	0.014579	
1662.241718	0.015783	
1662.243387	0.013716	
1662.244982	0.012915	
1662.246637	0.014687	
1662.248215	0.013068	
1662.249911	0.012141	
1662.251444	0.013870	
1662.253159	0.015352	
1662.254702	0.014711	
1662.256418	0.007436	
1662.257918	0.008395	
1662.259674	0.007203	
1662.261174	0.005696	
1662.262960	0.005974	
1662.264433	0.006123	
1662.266226	0.005652	
1662.267710	0.006494	
1662.269479	0.007690	
1662.270972	0.007380	
1662.272746	0.004065	
1662.274245	0.004173	
1662.276013	0.003952	
1662.277518	0.001462	
1662.279243	0.001603	
1662.280758	0.003098	
1662.282477	0.004600	
1662.284010	0.001680	
1662.285697	0.003650	
1662.287244	0.003545	
1662.288915	0.001394	
1662.290492	0.000838	
1662.292176	0.001732	
1662.293745	-0.001051	
1662.295405	-0.001567	
1662.297000	-0.001080	
1662.298639	0.000387	
1662.300264	-0.002095	
1662.301877	0.001015	
1662.303510	0.002115	
1662.305121	0.000685	
1662.306773	-0.002369	
1662.308365	-0.001184	
1662.310023	-0.002731	
1662.311608	-0.003412	
1662.313302	-0.003847	
1662.314846	-0.000882	
1662.316551	-0.002667	
1662.318091	-0.001482	
1662.319774	0.000000	
1662.321295	-0.000757	
1662.323022	-0.003908	
1662.324523	-0.002453	
1662.326297	-0.003851	
1662.327771	-0.005414	
1662.329565	-0.004705	
1662.331043	-0.003162	
1662.332801	-0.002183	
1662.334287	-0.003440	
1662.336065	-0.000206	
1662.337552	-0.001076	
1662.339307	-0.003593	
1662.340820	-0.003746	
1662.342560	-0.002933	
1662.344078	-0.005615	
1662.345792	-0.006236	
1662.347335	-0.003831	
1662.349034	-0.001595	
1662.350580	-0.004729	
1662.352278	-0.001974	
1662.353844	-0.000028	
1662.355523	-0.002433	
1662.357103	-0.005499	
1662.358767	-0.001805	
1662.360356	-0.004923	
1662.361991	-0.004689	
1662.363579	-0.003194	
1662.365184	-0.002413	
1662.366815	-0.004310	
1662.368406	-0.001575	
1662.370073	-0.000185	
1662.371662	-0.001128	
1662.373316	-0.002510	
1662.374897	-0.001865	
1662.376587	-0.003134	
1662.378147	-0.004894	
1662.379865	-0.002921	
1662.381398	-0.000097	
1662.383106	-0.002365	
1662.384629	0.001080	
1662.386346	0.001547	
1662.387828	0.000632	
1662.389584	-0.000894	
1662.391080	-0.000411	
1662.392873	-0.000645	
1662.394353	-0.002707	
1662.396140	-0.002594	
1662.397619	-0.000238	
1662.399379	-0.000463	
1662.400873	-0.000185	
1662.402610	0.002042	
1662.404126	0.002421	
1662.405857	-0.000725	
1662.407396	-0.000250	
1662.409123	0.000564	
1662.410647	-0.001390	
1662.412334	-0.002449	
1662.413883	0.000314	
1662.415555	0.000858	
1662.417124	-0.000761	
1662.418786	0.002308	
1662.420372	0.002812	
1662.422018	0.001051	
1662.423608	-0.001257	
1662.425235	0.000926	
1662.426867	-0.001466	
1662.428485	-0.002312	
1662.430152	-0.001019	
1662.431732	0.001035	
1662.433395	-0.000604	
1662.434968	0.001768	
1662.436644	0.002739	
1662.438211	0.001120	
1662.439906	-0.002099	
1662.441463	0.000882	
1662.443167	-0.000790	
1662.444722	-0.002034	
1662.446434	-0.001011	
1662.447961	0.000024	
1662.449701	-0.001172	
1662.451189	-0.000218	
1662.452942	0.001905	
1662.454422	0.001974	
1662.456202	0.000165	
1662.457688	0.000471	
1662.459463	-0.000391	
1662.460940	-0.003295	
1662.462694	-0.002542	
1662.464189	0.000048	
1662.465927	-0.000294	
1662.467444	-0.001644	
1662.469148	0.002683	
1662.470675	0.002639	
1662.472388	0.000246	
1662.473936	-0.001462	
1662.475627	0.000600	
1662.477207	-0.001809	
1662.478709	-0.002208	
1662.480270	-0.001680	
1662.481800	0.000959	
1662.483352	-0.000628	
1662.484852	0.001281	
1662.486389	0.002369	
1662.487928	0.001523	
1662.489472	-0.001366	
1662.491003	-0.000612	
1662.492497	0.000922	
1662.494080	-0.002046	
1662.495590	-0.001321	
1662.497175	0.000157	
1662.498666	0.000197	
1662.500309	0.000701	
1662.501820	0.002486	
1662.503447	0.003553	
1662.504946	0.001821	
1662.506573	0.000395	
1662.508067	0.001660	
1662.509620	-0.000814	
1662.511117	-0.000250	
1662.512658	-0.001885	
1662.514179	0.000862	
1662.515754	0.002723	
1662.517292	0.001168	
1662.518809	0.003706	
1662.520442	0.003879	
1662.521935	0.001732	
1662.523558	0.001204	
1662.525083	0.003106	
1662.526709	-0.000890	
1662.528202	-0.000496	
1662.529825	0.000919	
1662.531315	0.001877	
1662.532944	0.001849	
1662.534428	0.001265	
1662.536059	0.003464	
1662.537546	0.003754	
1662.539141	0.001402	
1662.540669	0.000910	
1662.542211	0.001736	
1662.543833	0.000060	
1662.545329	-0.001760	
1662.546964	0.000125	
1662.548479	0.001644	
1662.550123	-0.000197	
1662.551614	0.002618	
1662.553254	0.003206	
1662.554729	0.001245	
1662.556353	-0.000596	
1662.557826	-0.000431	
1662.559451	-0.000568	
1662.560934	-0.003001	
1662.562527	-0.003094	
1662.564059	-0.002385	
1662.565601	-0.000693	
1662.567196	-0.002401	
1662.568678	-0.000193	
1662.570329	-0.000435	
1662.571829	-0.003235	
1662.573462	-0.004343	
1662.574943	-0.002481	
1662.576588	-0.005575	
1662.578058	-0.008053	
1662.579698	-0.007622	
1662.581178	-0.005454	
1662.582810	-0.006474	
1662.584302	-0.007283	
1662.585883	-0.004987	
1662.587430	-0.007170	
1662.588967	-0.008637	
1662.590558	-0.011328	
1662.592048	-0.010115	
1662.593691	-0.013805	
1662.595190	-0.014498	
1662.596829	-0.013523	
1662.598355	-0.013104	
1662.599976	-0.014470	
1662.601453	-0.013181	
1662.603085	-0.013426	
1662.604573	-0.015473	
1662.606189	-0.017741	
1662.607692	-0.018329	
1662.609284	-0.018788	
1662.610801	-0.021729	
1662.612432	-0.023167	
1662.613971	-0.021862	
1662.615507	-0.021096	
1662.617118	-0.022881	
1662.618698	-0.022720	
1662.620304	-0.022913	
1662.621853	-0.025169	
1662.623483	-0.028412	
1662.624987	-0.027328	
1662.626684	-0.030889	
1662.628158	-0.033318	
1662.629882	-0.033943	
1662.631352	-0.033310	
1662.633052	-0.034088	
1662.634539	-0.034474	
1662.636228	-0.034233	
1662.637717	-0.037649	
1662.639432	-0.040473	
1662.640921	-0.042112	
1662.642593	-0.041810	
1662.644111	-0.045242	
1662.645749	-0.047135	
1662.647274	-0.047635	
1662.648886	-0.049254	
1662.650454	-0.051969	
1662.652037	-0.050382	
1662.653641	-0.051969	
1662.655193	-0.055591	
1662.656807	-0.059104	
1662.658295	-0.059555	
1662.659999	-0.064078	
1662.661475	-0.067374	
1662.663205	-0.067507	
1662.664678	-0.068594	
1662.666363	-0.072026	
1662.667847	-0.073839	
1662.669543	-0.074983	
1662.671025	-0.078593	
1662.672721	-0.083463	
1662.674218	-0.086005	
1662.675883	-0.088631	
1662.677407	-0.094766	
1662.679040	-0.098811	
1662.680581	-0.100144	
1662.682190	-0.101437	
1662.683766	-0.108938	
1662.685356	-0.108785	
1662.686959	-0.114525	
1662.688502	-0.118280	
1662.690155	-0.126445	
1662.691637	-0.129321	
1662.693352	-0.135609	
1662.694827	-0.142353	
1662.696564	-0.147034	
1662.698037	-0.151006	
1662.699729	-0.156863	
1662.701209	-0.162305	
1662.702921	-0.167550	
1662.704420	-0.173947	
1662.706155	-0.184247	
1662.707644	-0.191152	
1662.709320	-0.197738	
1662.710810	-0.207531	
1662.712466	-0.216216	
1662.714014	-0.221787	
1662.715643	-0.228567	
1662.717199	-0.239612	
1662.718781	-0.244845	
1662.720372	-0.254759	
1662.721930	-0.264495	
1662.723555	-0.277161	
1662.725086	-0.284653	
1662.726749	-0.297822	
1662.728336	-0.309371	
1662.729984	-0.318423	
1662.731552	-0.329263	
1662.733226	-0.343853	
1662.734802	-0.352970	
1662.736510	-0.365622	
1662.738051	-0.378763	
1662.739745	-0.394642	
1662.741276	-0.405757	
1662.742993	-0.418692	
1662.744481	-0.429169	
1662.746233	-0.443663	
1662.747727	-0.455539	
1662.749509	-0.472643	
1662.750987	-0.486798	
1662.752758	-0.501562	
1662.754235	-0.517498	
1662.755981	-0.534534	
1662.757480	-0.551098	
1662.759226	-0.566889	
1662.760740	-0.585980	
1662.762452	-0.604393	
1662.763992	-0.618718	
1662.765721	-0.636442	
1662.767251	-0.655247	
1662.768943	-0.670889	
1662.770492	-0.687393	
1662.772168	-0.708606	
1662.773746	-0.726701	
1662.775422	-0.744103	
1662.777015	-0.765888	
1662.778655	-0.783814	
1662.780259	-0.800653	
1662.781896	-0.817290	
1662.783488	-0.838853	
1662.785105	-0.852260	
1662.786782	-0.871213	
1662.788368	-0.890420	
1662.790033	-0.910711	
1662.791604	-0.927924	
1662.793287	-0.948581	
1662.794862	-0.968324	
1662.796549	-0.985251	
1662.798108	-1.000256	
1662.799805	-1.021083	
1662.801352	-1.036696	
1662.803067	-1.053801	
1662.804591	-1.071054	
1662.806332	-1.090990	
1662.807817	-1.105371	
1662.809580	-1.124107	
1662.811070	-1.141316	
1662.812839	-1.156829	
1662.814333	-1.168922	
1662.816109	-1.184012	
1662.817591	-1.197334	
1662.819362	-1.208947	
1662.820851	-1.222072	
1662.822597	-1.235881	
1662.824107	-1.243635	
1662.825823	-1.251398	
1662.827351	-1.263096	
1662.829081	-1.271982	
1662.830620	-1.279149	
1662.832338	-1.283544	
1662.833883	-1.293175	
1662.835581	-1.295738	
1662.837143	-1.298207	
1662.838800	-1.304563	
1662.840375	-1.308209	
1662.842003	-1.307710	
1662.843601	-1.309764	
1662.845237	-1.309788	
1662.846839	-1.307129	
1662.848467	-1.301099	
1662.850097	-1.298738	
1662.851704	-1.290186	
1662.853375	-1.283370	
1662.854938	-1.277449	
1662.856639	-1.270137	
1662.858193	-1.258882	
1662.859903	-1.248961	
1662.861454	-1.242975	
1662.863120	-1.229206	
1662.864681	-1.212959	
1662.866405	-1.197745	
1662.867933	-1.179532	
1662.869655	-1.159431	
1662.871136	-1.140252	
1662.872882	-1.122242	
1662.874364	-1.099546	
1662.876120	-1.075775	
1662.877607	-1.055521	
1662.879390	-1.029163	
1662.880880	-1.001759	
1662.882653	-0.973971	
1662.884145	-0.948698	
1662.885890	-0.915681	
1662.887410	-0.889800	
1662.889108	-0.861710	
1662.890638	-0.834205	
1662.892351	-0.800887	
1662.893897	-0.773450	
1662.895603	-0.741658	
1662.897159	-0.708920	
1662.898853	-0.673962	
1662.900415	-0.646304	
1662.902057	-0.609332	
1662.903640	-0.578382	
1662.905274	-0.546434	
1662.906881	-0.515830	
1662.908505	-0.481916	
1662.910145	-0.451184	
1662.911760	-0.423312	
1662.913423	-0.392173	
1662.915029	-0.357207	
1662.916681	-0.325154	
1662.918274	-0.290494	
1662.919955	-0.255617	
1662.921516	-0.225864	
1662.923221	-0.193460	
1662.924770	-0.161379	
1662.926471	-0.131670	
1662.928008	-0.100378	
1662.929708	-0.067809	
1662.931226	-0.033483	
1662.932968	-0.000419	
1662.934452	0.034370	
1662.936236	0.071289	
1662.937717	0.102754	
1662.939468	0.134220	
1662.940955	0.162196	
1662.942725	0.196602	
1662.944215	0.222911	
1662.945972	0.256173	
1662.947471	0.289225	
1662.949234	0.324260	
1662.950741	0.353376	
1662.952467	0.389349	
1662.953994	0.412452	
1662.955700	0.439494	
1662.957241	0.469755	
1662.958958	0.503621	
1662.960518	0.529849	
1662.962212	0.562394	
1662.963770	0.595011	
1662.965458	0.627991	
1662.967026	0.654574	
1662.968675	0.686583	
1662.970267	0.715824	
1662.971882	0.741360	
1662.973500	0.770565	
1662.975107	0.798421	
1662.976771	0.823187	
1662.978351	0.849778	
1662.980005	0.879576	
1662.981614	0.907576	
1662.983277	0.932689	
1662.984851	0.958752	
1662.986543	0.987724	
1662.988093	1.010943	
1662.989787	1.032708	
1662.991340	1.055895	
1662.993035	1.077072	
1662.994569	1.095091	
1662.996286	1.116695	
1662.997788	1.136369	
1662.999556	1.155576	
1663.001046	1.173740	
1663.002819	1.191545	
1663.004303	1.207006	
1663.006067	1.218962	
1663.007549	1.228928	
1663.009305	1.237762	
1663.010812	1.246596	
1663.012567	1.257573	
1663.014078	1.265847	
1663.015789	1.275157	
1663.017316	1.279656	
1663.019044	1.286875	
1663.020587	1.292893	
1663.022265	1.292350	
1663.023823	1.291846	
1663.025500	1.291838	
1663.027085	1.285880	
1663.028741	1.281594	
1663.030330	1.278835	
1663.031975	1.276119	
1663.033579	1.268885	
1663.035228	1.264357	
1663.036843	1.256135	
1663.038454	1.246576	
1663.040079	1.234733	
1663.041686	1.229657	
1663.043334	1.216343	
1663.044941	1.201717	
1663.046607	1.188560	
1663.048183	1.176580	
1663.049891	1.157268	
1663.051436	1.144937	
1663.053126	1.129323	
1663.054672	1.114447	
1663.056375	1.092936	
1663.057904	1.076585	
1663.059634	1.054655	
1663.061135	1.037893	
1663.062919	1.020253	
1663.064407	1.002363	
1663.066179	0.981669	
1663.067664	0.965367	
1663.069418	0.944271	
1663.070894	0.927235	
1663.072653	0.904986	
1663.074144	0.885610	
1663.075911	0.866004	
1663.077420	0.847462	
1663.079169	0.826374	
1663.080689	0.812653	
1663.082414	0.792431	
1663.083949	0.775125	
1663.085655	0.762287	
1663.087195	0.741650	
1663.088866	0.723168	
1663.090436	0.704525	
1663.092094	0.690019	
1663.093681	0.670216	
1663.095319	0.653369	
1663.096907	0.639572	
1663.098546	0.625711	
1663.100166	0.608921	
1663.101775	0.595060	
1663.103419	0.581613	
1663.105017	0.565161	
1663.106681	0.546901	
1663.108271	0.535831	
1663.109914	0.518827	
1663.111500	0.505498	
1663.113197	0.490617	
1663.114742	0.479906	
1663.116450	0.466669	
1663.117986	0.456280	
1663.119705	0.445327	
1663.121227	0.432714	
1663.122957	0.419876	
1663.124458	0.409849	
1663.126222	0.401873	
1663.127718	0.388817	
1663.129497	0.378779	
1663.130982	0.372019	
