time (s)	magX	magY	magZ
8087.250668	-161.070129	403.168304	499.506134
8087.253998	-160.719452	404.220337	516.747498
8087.257326	-158.849213	404.395691	532.294006
8087.260687	-157.095840	403.694336	550.645813
8087.263990	-155.634705	402.759216	568.763855
8087.267327	-153.881348	401.648773	587.174194
8087.270682	-151.134430	399.603180	605.526001
8087.274043	-147.861481	397.265350	623.819397
8087.277351	-145.406769	394.401520	642.288147
8087.280688	-141.607819	390.485657	661.224487
8087.283999	-138.101105	386.745178	679.284058
8087.287322	-133.600815	381.718872	698.921692
8087.290688	-128.925186	376.341888	717.974915
8087.293996	-124.541801	369.796021	736.677429
8087.297323	-119.398598	363.425476	754.970764
8087.300660	-113.963173	356.470490	772.504395
8087.303578	-107.709526	349.047913	790.797791
8087.306898	-101.631210	340.047333	808.974304
8087.310230	-95.611336	330.520752	826.215698
8087.313567	-89.591469	321.461731	843.807739
8087.316897	-83.162483	311.058441	860.289368
8087.320227	-75.272362	300.772064	878.115112
8087.323582	-68.258911	289.258331	892.726501
8087.326943	-61.713036	276.517242	909.909424
8087.330229	-53.472237	264.126831	925.338989
8087.333594	-45.815895	251.151978	939.482727
8087.336895	-38.101112	238.469315	954.094055
8087.340226	-30.035654	225.260666	967.653442
8087.343563	-21.444185	211.058456	980.686707
8087.346906	-12.735826	196.388657	992.083557
8087.350227	-4.319696	181.368210	1003.129700
8087.353557	4.914670	164.945053	1014.701965
8087.356894	15.317944	148.288132	1024.345337
8087.360229	24.026300	132.507889	1033.930420
8087.363562	33.494446	115.441849	1041.469849
8087.366891	44.189949	97.440674	1050.002808
8087.370226	52.956749	79.848625	1055.964233
8087.373558	62.950905	62.315018	1061.633423
8087.376907	73.412621	44.080070	1066.016968
8087.380229	83.231445	25.786674	1069.056030
8087.383555	93.108704	8.019288	1071.510742
8087.386896	103.628868	-10.800117	1072.679687
8087.390225	113.856804	-29.502632	1072.328979
8087.393562	124.669197	-47.737579	1070.692505
8087.396951	134.721802	-66.030975	1067.594849
8087.400231	145.300415	-83.739914	1063.503784
8087.403555	154.651672	-100.981300	1057.133179
8087.406885	164.061371	-117.638229	1050.002808
8087.410220	172.535950	-135.171829	1041.528320
8087.413560	181.653427	-150.542953	1032.586182
8087.416890	190.069550	-165.329636	1021.364685
8087.420253	198.193466	-180.876099	1008.623596
8087.423556	204.856232	-195.195206	996.291687
8087.426887	213.038589	-208.520737	982.440125
8087.430221	219.467560	-220.502045	968.471680
8087.433554	225.253647	-233.067795	953.275940
8087.436887	230.630630	-244.113968	936.969604
8087.440226	236.124481	-254.341904	919.611328
8087.443557	241.033905	-264.336060	903.071350
8087.446885	244.949738	-273.336639	885.245483
8087.450215	247.930450	-281.694336	867.594971
8087.453555	251.437180	-290.168915	849.769165
8087.456882	254.067230	-297.123901	831.651062
8087.460214	256.288147	-303.903564	813.182434
8087.463561	258.158386	-309.572754	795.590332
8087.466888	260.613098	-314.774384	777.939880
8087.470221	261.665131	-319.917572	758.652832
8087.473553	262.658691	-324.476318	740.651733
8087.476882	263.067810	-328.742828	722.416748
8087.480214	263.418457	-332.015778	703.480469
8087.483546	263.418457	-334.879608	685.888367
8087.486886	263.476898	-337.275848	668.062561
8087.490213	263.301575	-340.139709	649.535400
8087.493544	263.301575	-341.893036	632.060181
8087.496879	261.840454	-343.237274	614.175964
8087.500255	261.197540	-343.997070	596.116333
8087.503551	260.437775	-345.282898	577.939819
8087.506891	258.918182	-345.575104	561.049133
8087.510214	257.749268	-345.691986	543.047974
8087.513549	255.411453	-345.049103	525.514343
8087.516878	253.891891	-344.815308	509.091156
8087.520214	252.430740	-343.178833	492.025116
8087.523543	250.385162	-342.302155	475.309784
8087.526880	247.930450	-341.250153	458.828156
8087.530216	246.118668	-339.555237	442.697266
8087.533565	243.839279	-337.977203	426.741669
8087.536877	241.559906	-336.223846	410.084747
8087.540213	238.403870	-333.769165	395.181152
8087.543572	236.066055	-331.606659	380.452942
8087.546874	233.143784	-328.333740	366.542938
8087.550226	229.870834	-325.645233	352.457642
8087.553538	227.182358	-322.898315	339.073639
8087.556875	224.201645	-319.917572	325.864990
8087.560203	221.279373	-316.469299	312.597900
8087.563539	217.538879	-313.605499	300.616608
8087.566876	214.967270	-310.040314	289.395081
8087.570206	212.220337	-306.650482	277.589142
8087.573538	209.298080	-303.435974	267.536530
8087.576876	205.382233	-300.279938	257.893036
8087.580213	202.635300	-295.954987	247.139099
8087.583537	199.771484	-292.623596	238.606079
8087.586896	197.199890	-289.116882	229.021027
8087.590207	194.336060	-286.019287	221.306244
8087.593548	191.180023	-282.512573	213.357697
8087.596867	189.017548	-279.473389	205.409119
8087.600205	185.919937	-276.609589	199.272339
8087.603541	183.465225	-273.219757	192.492706
8087.606870	180.367630	-269.829926	185.888367
8087.610199	178.146698	-266.966095	180.160706
8087.613533	175.458206	-263.342499	173.030396
8087.616868	173.061966	-260.829346	168.237885
8087.620202	170.665695	-257.322632	162.919342
8087.623537	167.977203	-255.218567	156.665680
8087.626870	165.814728	-251.945633	152.399200
8087.630205	163.476913	-248.964920	146.788422
8087.633531	161.431335	-246.451782	142.697266
8087.636875	158.684402	-243.354172	137.670959
8087.640198	156.463470	-239.789001	133.462891
8087.643535	154.710129	-237.042084	128.904144
8087.646863	151.846298	-234.353592	124.228523
8087.650197	149.800720	-231.606674	119.669792
8087.653534	148.047348	-228.625931	115.812386
8087.656868	145.884872	-225.995911	112.422554
8087.660200	143.839279	-223.365875	108.272942
8087.663525	141.969040	-220.209808	103.889549
8087.666864	140.098785	-217.696655	100.499702
8087.670201	137.760971	-215.066620	96.233192
8087.673534	135.773819	-212.144363	92.784920
8087.676858	133.786682	-209.689651	90.388664
8087.680218	130.805954	-207.059616	86.472832
8087.683531	129.929291	-204.663361	83.842781
8087.686863	128.526596	-202.091766	79.634727
8087.690195	126.013443	-199.578598	76.011101
8087.693531	124.143196	-197.533020	73.614845
8087.696864	122.448280	-194.435410	70.575684
8087.700192	120.870247	-192.214493	67.594978
8087.703530	120.052017	-189.642899	65.666275
8087.706858	118.649330	-187.305084	62.919350
8087.710196	117.129745	-185.493271	60.406189
8087.713522	115.960838	-183.915253	58.126823
8087.716873	114.558151	-181.869675	55.438332
8087.720194	112.687897	-180.174759	54.503212
8087.723527	111.928108	-178.538284	52.925186
8087.726858	110.466972	-176.784912	50.938049
8087.730196	109.181175	-175.323776	49.126236
8087.733520	108.362946	-173.453537	48.424896
8087.736857	107.369377	-171.933960	46.905319
8087.740189	106.200470	-170.355942	45.911751
8087.743528	105.499123	-169.479248	44.567505
8087.746855	104.271767	-168.602570	42.638809
8087.750189	103.219749	-166.790771	42.171249
8087.753524	102.109291	-165.446518	41.294563
8087.756852	101.057274	-165.095856	40.359436
8087.760230	100.706604	-163.751617	39.248978
8087.763518	99.537697	-162.758041	38.722969
8087.766859	99.245468	-161.822906	37.320282
8087.770185	98.661018	-161.355347	36.735825
8087.773519	97.609001	-159.485092	36.209816
8087.776853	96.673874	-159.251312	35.917595
8087.780190	96.323204	-157.848633	34.748688
8087.783520	95.446518	-156.971939	34.281120
8087.786849	95.271187	-155.510818	34.456459
8087.790184	94.394508	-154.984802	33.346001
8087.793517	93.459381	-154.166565	32.235535
8087.796849	93.225601	-153.114548	31.592636
8087.800186	93.167152	-152.237869	31.125076
8087.803545	91.706017	-151.302750	30.073059
8087.806877	91.355347	-150.659851	29.839279
8087.810196	91.004677	-149.666275	28.670372
8087.813518	90.303329	-148.906494	27.910576
8087.816845	89.718880	-148.555817	26.858566
8087.820177	88.433083	-147.854462	26.274109
8087.823515	88.959084	-146.860901	25.514320
8087.826847	88.140854	-146.685562	24.462303
8087.831465	87.790176	-144.815308	23.234955
8087.834861	86.971947	-143.880188	23.351845
8087.838205	86.621269	-143.237289	21.423141
8087.841159	85.978378	-143.587952	20.838692
8087.844898	85.861488	-142.828171	20.663361
8087.847823	85.569260	-142.302170	20.078903
8087.851501	85.393913	-142.126831	20.371124
8087.854423	84.458794	-141.483917	20.312683
8087.857728	84.926353	-141.425491	19.903564
8087.861138	84.867912	-141.659271	19.903564
8087.864509	84.225014	-141.133255	19.026878
8087.867793	83.406776	-140.665695	18.383987
8087.871032	83.874336	-140.315018	19.319115
8087.874365	83.815895	-140.841034	20.429573
8087.877714	83.815895	-141.191711	19.728233
8087.881078	83.640556	-141.191711	19.845123
8087.884382	84.225014	-140.957916	20.254234
8087.887807	83.991226	-141.717697	20.137344
8087.891111	84.400352	-141.600815	21.014030
8087.894433	84.575684	-142.185272	20.838692
8087.897737	84.517242	-141.659271	20.955582
8087.901031	84.634132	-142.594391	21.773819
8087.904350	85.043243	-142.711273	22.475159
8087.907713	84.809464	-143.704849	22.533607
8087.911108	85.160133	-144.172409	22.767387
8087.914451	85.861488	-144.347748	23.001167
8087.917765	86.095268	-144.464645	23.118065
8087.921052	85.744598	-145.224426	23.293396
8087.924358	85.919930	-145.399765	24.462303
8087.927688	86.036819	-145.633545	24.929863
8087.931023	86.796608	-146.627106	24.345413
8087.934380	87.264175	-147.036240	25.338982
8087.937711	87.381065	-147.503799	25.806549
8087.941129	87.907066	-147.796021	26.098770
8087.944455	87.731735	-148.438934	26.507889
8087.947703	88.257744	-149.023376	25.864990
8087.951018	88.374634	-149.432495	26.507889
8087.954382	88.842194	-150.016953	27.267677
8087.957697	89.309761	-150.250732	27.267677
8087.961068	89.835770	-151.010529	27.443016
8087.964442	90.069550	-151.536530	27.969025
8087.967765	90.303329	-152.530090	28.904152
8087.970613	91.121567	-152.763870	29.254822
8087.974346	91.180008	-154.634125	29.254822
8087.977266	91.121567	-155.043259	30.540619
8087.980589	92.056694	-155.335464	30.657509
8087.983945	92.056694	-156.270599	31.125076
8087.987265	92.524254	-157.147278	32.352425
8087.990589	93.517822	-158.140839	32.177094
8087.993922	94.336060	-159.543549	33.638222
8087.997310	95.271187	-160.537109	33.988892
8088.000637	95.388077	-161.413803	35.683815
8088.003936	96.556984	-163.108704	36.852715
8088.007256	96.264755	-164.628281	38.313858
8088.010586	97.258331	-165.914078	38.839859
8088.013919	97.842781	-167.141434	40.534775
8088.017257	99.245468	-168.953247	41.879021
8088.020588	100.063705	-170.765045	42.580360
8088.023915	100.589706	-172.635300	45.327293
8088.027256	101.992401	-174.330215	46.320862
8088.030604	103.219749	-176.258911	47.431335
8088.033964	104.388657	-178.187607	50.236710
8088.037323	105.031563	-179.648743	52.048508
8088.040656	106.434250	-181.928101	53.918762
8088.043915	107.486267	-183.213913	56.022797
8088.047252	108.713615	-185.610168	57.542381
8088.050587	109.531853	-187.655762	59.412628
8088.053915	111.051430	-190.052017	61.925774
8088.057265	111.811218	-192.974274	64.322037
8088.060587	112.863243	-194.493866	66.952080
8088.063961	114.791931	-196.773224	69.932793
8088.067297	115.902397	-198.234360	72.212151
8088.070611	117.246635	-201.098190	75.075981
8088.073951	118.415543	-203.436005	77.589119
8088.076837	119.876686	-206.007599	79.868507
8088.080152	121.454704	-208.228531	81.855644
8088.083489	122.798943	-210.157211	84.251900
8088.086824	124.844536	-212.553467	87.992393
8088.090158	126.188782	-215.008179	91.265343
8088.093492	127.474571	-217.638229	93.369377
8088.096825	128.526596	-219.683807	96.057869
8088.100156	131.215088	-222.313858	99.973701
8088.103491	132.325546	-224.943893	102.603737
8088.106857	134.078903	-227.398605	105.935127
8088.110157	135.481583	-231.080643	108.798958
8088.113493	137.936295	-233.243134	113.299248
8088.116822	139.163651	-236.223831	117.215080
8088.120155	140.683228	-238.970779	121.364693
8088.123481	143.021042	-241.600815	126.215660
8088.126818	144.365295	-244.289307	130.599060
8088.130154	145.534195	-247.796036	135.333130
8088.133482	148.047348	-250.776733	140.008759
8088.136815	148.807144	-253.640549	144.625946
8088.140147	151.612518	-257.147278	149.944489
8088.143489	153.307434	-260.420227	155.263000
8088.146820	155.002335	-263.517822	161.516663
8088.150151	156.521927	-267.609009	167.536530
8088.153528	158.509064	-270.940399	175.192871
8088.156840	160.729980	-274.154877	181.855652
8088.160155	162.424911	-278.304504	187.875519
8088.163482	164.996506	-281.694336	196.408539
8088.166814	167.568100	-285.902405	204.240204
8088.170159	169.555237	-289.584442	212.422546
8088.173481	170.957932	-293.617187	222.124481
8088.176812	173.646408	-297.182343	229.956146
8088.180151	175.516663	-301.448853	239.658081
8088.183485	177.854477	-304.838715	249.418488
8088.186810	180.250732	-308.520752	260.113953
8088.190148	182.705444	-312.904144	270.341888
8088.193479	184.984818	-316.820007	280.569824
8088.196812	186.504395	-320.794281	291.791351
8088.200164	189.134430	-323.950317	303.421967
8088.203472	191.939804	-327.632385	315.227936
8088.206813	193.926956	-331.489777	326.975433
8088.210140	195.972534	-334.821136	338.430725
8088.213478	198.368790	-337.860321	350.879608
8088.216810	200.297501	-341.133270	363.503815
8088.220156	201.992416	-344.639954	376.653992
8088.223476	203.395096	-347.679138	389.395081
8088.226811	205.265350	-350.250732	403.480408
8088.230140	207.194046	-352.939209	417.098175
8088.233478	209.005844	-355.452362	432.235565
8088.236808	211.109879	-357.907074	446.963776
8088.240142	212.512573	-359.952667	460.581512
8088.243495	213.681473	-361.939819	475.894196
8088.246810	215.493286	-364.277618	491.674469
8088.250143	216.019287	-365.154297	507.162445
8088.253472	217.071320	-367.024536	523.819397
8088.256808	218.006439	-368.076569	539.775024
8088.260140	218.123337	-369.713043	556.899475
8088.263475	218.707779	-370.648163	573.497986
8088.266802	217.889542	-370.765045	592.142090
8088.270135	218.064880	-371.700165	609.851013
8088.273469	217.772644	-371.291077	628.144348
8088.276807	217.305084	-370.998840	647.723572
8088.280159	216.486862	-369.070129	666.192322
8088.283530	215.142609	-367.667450	685.070129
8088.286819	213.856812	-366.206299	705.233826
8088.290132	211.518997	-364.102295	725.105225
8088.293471	209.356522	-360.946228	744.392212
8088.296804	207.077148	-357.731750	765.607910
8088.300134	204.680893	-354.283447	784.836365
8088.303472	201.291061	-349.724731	805.467590
8088.306799	197.433670	-344.639954	825.806580
8088.310132	193.342484	-338.970764	845.210388
8088.313470	189.192871	-332.717133	863.562256
8088.316801	184.751022	-325.060791	883.375244
8088.320130	179.607834	-317.638214	903.188171
8088.323462	174.113968	-308.637634	921.423218
8088.326792	168.094101	-299.520142	938.372253
8088.330139	162.717133	-289.000000	955.087708
8088.333462	155.645248	-278.538269	971.335510
8088.336793	149.976044	-267.258331	986.005310
8088.340130	142.962601	-256.095276	999.856873
8088.343465	135.656937	-243.938629	1013.649841
8088.346799	127.942131	-231.489777	1025.981812
8088.350132	120.285797	-218.456451	1036.735840
8088.353527	112.454117	-204.371124	1047.197510
8088.356805	104.914673	-190.461136	1056.373413
8088.360134	96.264755	-175.148453	1063.971313
8088.363466	87.731735	-160.478668	1071.510742
8088.366833	79.607834	-145.341324	1076.595459
8088.370131	70.724136	-128.859741	1080.686646
8088.373481	61.489769	-113.196381	1084.251831
8088.376794	53.015198	-97.065460	1086.122070
8088.380123	43.956165	-81.635880	1087.875488
8088.383456	35.130920	-64.219170	1087.700195
8088.386795	25.779661	-48.380478	1086.648071
8088.390124	16.311514	-31.606663	1085.362305
8088.393461	6.142023	-14.949737	1081.738770
8088.396800	-3.793688	3.051432	1078.173584
8088.400126	-12.735826	19.533024	1072.854980
8088.403458	-21.853304	36.014610	1067.068970
8088.406789	-31.496786	53.197548	1059.880127
8088.410145	-41.081818	69.796028	1051.347168
8088.413455	-50.491524	86.219170	1043.573853
8088.416820	-59.258331	102.525429	1033.755127
8088.420126	-68.492691	119.649918	1022.592102
8088.423457	-78.077736	135.839279	1010.844543
8088.426790	-86.844536	151.561066	997.518982
8088.430117	-95.377556	166.756866	984.485657
8088.433457	-103.443016	182.478668	970.692566
8088.436788	-112.560486	197.908234	955.321472
8088.440122	-120.158394	212.402679	939.950317
8088.443454	-127.697838	226.195786	924.053223
8088.446782	-134.945053	239.404449	907.688477
8088.450115	-142.367615	252.320862	890.505554
8088.453479	-148.153702	264.769714	871.744568
8088.456782	-154.641144	276.867920	853.977234
8088.460119	-159.784332	288.323212	835.333130
8088.463451	-165.044403	298.784912	817.273560
8088.466782	-170.362946	309.012878	799.623047
8088.470115	-174.395676	318.130341	779.868591
8088.473453	-178.779068	327.130920	760.523071
8088.476779	-182.519577	335.547058	742.521973
8088.480117	-186.143188	341.800690	724.403870
8088.483482	-189.007004	349.398590	705.642944
8088.486783	-191.578613	355.652252	688.343079
8088.490113	-193.215073	360.737000	669.932800
8088.493451	-194.968445	365.821747	653.158997
8088.496799	-196.955566	369.562256	635.157837
8088.500111	-197.949158	373.419647	619.494507
8088.503444	-199.410278	375.874329	602.837585
8088.506777	-199.585617	378.621277	585.713074
8088.510115	-201.163635	381.075989	570.225037
8088.513443	-201.689651	382.011108	554.737000
8088.516781	-202.157211	383.647552	538.898315
8088.520114	-201.338989	384.056702	524.053223
8088.523442	-201.222092	384.699585	508.682037
8088.526781	-201.748093	384.582703	495.181183
8088.530108	-201.864990	384.232025	481.329620
8088.533439	-201.338989	383.472229	467.419647
8088.536779	-200.812958	382.537109	454.269440
8088.540126	-200.111633	380.842194	440.417877
8088.543439	-199.293381	379.556396	428.611908
8088.546776	-198.182922	376.926361	414.117462
8088.550111	-197.832260	375.231445	401.317963
8088.553446	-196.371124	372.659851	389.219727
8088.556812	-194.734650	370.964935	377.764435
8088.560107	-193.507294	367.399780	366.192261
8088.563436	-193.039734	365.061951	353.977173
8088.566770	-191.227936	362.548798	342.814148
8088.570123	-190.292816	359.275879	332.235535
8088.573436	-189.007004	356.178253	320.604889
8088.576770	-186.844528	352.788422	310.026276
8088.580102	-185.792511	349.749268	299.097015
8088.583442	-183.513138	345.891876	289.395081
8088.586776	-181.935120	341.800690	279.342499
8088.590103	-180.064880	338.527740	269.991241
8088.593436	-178.194626	334.436584	260.698425
8088.596770	-175.973694	330.871429	251.697815
8088.600130	-174.629456	326.663361	241.937439
8088.603437	-171.473404	322.279968	233.988892
8088.606810	-170.421387	318.480988	225.981873
8088.610108	-167.791351	314.097595	218.150177
8088.613446	-165.511978	310.941559	209.850952
8088.616770	-162.940369	306.908813	202.369965
8088.620100	-160.661011	303.518982	195.531860
8088.623437	-158.673859	299.544708	188.576843
8088.626770	-156.686722	295.628876	182.790771
8088.630101	-155.225586	291.829926	177.063110
8088.633431	-152.537109	288.615417	170.575684
8088.636767	-150.549973	284.465820	165.549377
8088.640102	-148.329041	280.199280	159.354156
8088.643452	-146.809464	277.335480	154.327881
8088.646768	-144.763885	273.244324	149.593811
8088.650096	-142.601395	270.497375	145.385742
8088.653436	-141.023361	267.282867	140.593231
8088.656768	-139.153122	263.951508	136.034485
8088.661484	-135.704849	256.996490	128.436584
8088.664812	-134.185272	253.898895	124.812981
8088.668140	-132.548782	251.385742	121.715370
8088.671048	-131.672119	248.580353	117.565742
8088.674803	-129.860306	245.891876	113.591469
8088.678182	-127.931618	242.794281	110.961433
8088.681154	-126.821159	240.164230	108.214485
