time (s)	magX	magY	magZ
5803.206012	-136.127991	337.587372	-126.284622
5803.209347	-137.822906	342.263000	-131.661606
5803.212682	-139.400940	347.172424	-137.038574
5803.216033	-140.978958	352.900055	-142.532440
5803.219394	-143.199875	357.984802	-148.727646
5803.222712	-145.187012	363.069550	-155.565750
5803.226006	-146.765045	369.089417	-161.936295
5803.229348	-149.278198	374.524841	-168.073059
5803.232674	-150.271774	380.486267	-175.904724
5803.235590	-152.492691	386.330811	-182.742844
5803.238922	-154.713623	392.175354	-189.697845
5803.242259	-157.051437	398.370514	-197.412628
5803.245620	-158.921677	404.098175	-205.419647
5803.248920	-161.668610	410.293396	-214.011108
5803.252252	-164.298645	416.021027	-222.193466
5803.255586	-166.870239	422.625366	-231.077148
5803.258915	-169.032730	428.002319	-238.908829
5803.262248	-172.539444	433.905334	-248.493866
5803.265585	-175.461716	439.983612	-257.260681
5803.268917	-178.325546	446.120422	-266.611908
5803.272249	-180.838684	452.198700	-275.261841
5803.275578	-183.994736	457.984802	-286.191132
5803.278963	-187.033890	464.822906	-295.483948
5803.282257	-190.365280	470.199890	-305.770325
5803.285588	-194.047348	476.044434	-315.647583
5803.288953	-197.203384	481.479828	-325.933960
5803.292247	-200.476318	486.798340	-337.155487
5803.295583	-203.983047	492.116882	-348.786102
5803.298919	-206.788437	497.143188	-360.767395
5803.302245	-210.119812	502.403259	-372.748688
5803.305577	-213.743408	507.546448	-386.132660
5803.308912	-216.841019	512.163635	-398.815308
5803.312242	-220.113953	517.248413	-412.374634
5803.315582	-222.685562	522.566895	-425.933960
5803.318915	-225.900070	528.060791	-441.947968
5803.322247	-227.653412	532.561096	-457.845123
5803.325579	-230.108124	537.178223	-473.508484
5803.328914	-232.738174	541.503174	-490.632965
5803.332255	-234.900650	546.061951	-508.517273
5803.335575	-236.770905	549.977783	-527.336609
5803.338913	-238.582687	553.718262	-547.266541
5803.342240	-240.160721	556.523682	-567.956116
5803.345631	-241.329636	560.205688	-588.762695
5803.348909	-242.030960	562.426636	-610.212158
5803.352241	-242.732315	563.770874	-632.479797
5803.355571	-242.673889	564.939819	-655.507263
5803.358910	-243.024551	565.758057	-678.710083
5803.362235	-242.556992	565.641113	-703.198669
5803.365578	-242.147858	564.179993	-727.395081
5803.368908	-241.329636	562.777344	-752.351257
5803.372243	-240.978958	559.796570	-777.541199
5803.375603	-240.160721	556.582092	-801.854431
5803.378907	-238.758026	551.438904	-827.921082
5803.382242	-236.770905	546.061951	-854.221497
5803.385575	-235.192856	538.580933	-880.346558
5803.388907	-233.556396	532.268799	-907.056091
5803.392239	-231.393921	523.852661	-933.590271
5803.395568	-229.582108	513.800110	-960.241394
5803.398904	-227.536514	503.572205	-985.489685
5803.402235	-225.666275	492.292206	-1011.147278
5803.405586	-223.620682	480.310913	-1037.389282
5803.408908	-221.165970	467.394501	-1062.462280
5803.412235	-218.009933	452.257172	-1088.295166
5803.415573	-214.970764	437.178223	-1114.361816
5803.418915	-211.580948	421.398010	-1138.149048
5803.422237	-207.781998	404.974854	-1163.572876
5803.425570	-204.275284	386.798340	-1186.892578
5803.428901	-200.067215	368.388062	-1211.556519
5803.432235	-195.157806	349.334900	-1235.285156
5803.435565	-190.248383	328.469910	-1256.734741
5803.438897	-184.929855	307.780212	-1279.469849
5803.442229	-178.793106	286.798370	-1301.562256
5803.445567	-172.305664	264.063110	-1323.011719
5803.448911	-163.889542	240.860306	-1344.110474
5803.452227	-156.174759	218.008179	-1364.040405
5803.455567	-146.881943	193.285797	-1384.379272
5803.458897	-137.355347	168.563416	-1403.490967
5803.462226	-127.419632	142.730560	-1421.258423
5803.465565	-116.315018	116.430153	-1439.025757
5803.468903	-104.450607	89.077721	-1455.507324
5803.472227	-92.586205	62.718872	-1469.475830
5803.475607	-79.786674	35.191116	-1483.210449
5803.478925	-67.162476	7.604910	-1495.367065
5803.482235	-54.012280	-20.916424	-1505.478149
5803.485561	-39.517826	-49.028637	-1513.368286
5803.488899	-25.666279	-76.673286	-1520.147949
5803.492235	-11.522500	-104.376389	-1524.998901
5803.495564	2.036820	-131.319702	-1528.563965
5803.498896	16.472824	-158.613678	-1528.505493
5803.502232	30.441261	-184.797195	-1526.752197
5803.505561	43.649910	-210.337814	-1523.829956
5803.508893	56.975452	-234.943298	-1517.751587
5803.512229	68.898308	-258.263000	-1510.971924
5803.515554	80.002922	-280.939819	-1501.094727
5803.518891	91.458214	-303.441284	-1490.282349
5803.522239	102.329048	-325.416718	-1478.301025
5803.525554	111.738747	-345.405060	-1462.754517
5803.528889	120.797783	-364.808899	-1448.435425
5803.532223	129.564575	-383.452972	-1431.310913
5803.535556	136.987137	-400.168335	-1413.602051
5803.538884	144.760376	-416.533020	-1394.841064
5803.542225	150.955582	-431.027496	-1374.443604
5803.545553	157.092346	-445.872589	-1352.292847
5803.548902	162.352432	-458.789001	-1331.953857
5803.552227	167.670959	-471.471680	-1310.212158
5803.555554	171.937469	-482.517853	-1286.191162
5803.558923	176.613098	-492.395111	-1262.286987
5803.562226	180.470490	-503.149017	-1238.441284
5803.565568	184.386322	-512.091187	-1214.829346
5803.568889	188.302155	-519.396851	-1189.347168
5803.572220	191.984222	-526.351807	-1164.566406
5803.575557	195.198715	-532.079529	-1137.506104
5803.578884	198.179428	-537.281128	-1109.978394
5803.582223	201.744598	-541.547607	-1084.145630
5803.585548	204.374634	-545.580383	-1057.786621
5803.588886	207.355347	-548.619568	-1030.784912
5803.592219	209.634720	-550.372864	-1002.205139
5803.595551	212.147873	-551.892456	-974.794250
5803.598887	214.777908	-553.295166	-947.909424
5803.602232	217.291061	-553.645813	-920.147888
5803.605552	219.278214	-553.704285	-892.035645
5803.608881	221.089996	-552.652283	-864.507812
5803.612238	222.551147	-551.658691	-837.447632
5803.615564	224.421402	-550.255981	-810.095215
5803.618878	225.824081	-547.976624	-782.859741
5803.622216	226.642319	-545.112793	-756.909973
5803.625548	227.635895	-542.599670	-730.960266
5803.628880	227.635895	-538.625366	-705.478088
5803.632214	227.811234	-534.768005	-680.288086
5803.635547	227.811234	-530.676819	-655.916443
5803.638884	227.226776	-526.877869	-631.953796
5803.642212	226.817642	-522.552917	-608.400330
5803.645578	225.590286	-518.286377	-585.898865
5803.648876	223.836929	-513.201660	-564.741638
5803.652209	222.668045	-508.058441	-544.227356
5803.655541	220.797791	-503.207489	-522.719482
5803.658878	218.752182	-498.590332	-503.841644
5803.662207	217.057297	-491.869110	-485.898865
5803.665543	214.836349	-487.135010	-469.183533
5803.668876	212.849228	-481.816467	-451.766785
5803.672210	210.277618	-477.082428	-435.694336
5803.675557	207.822906	-472.231476	-420.849213
5803.678878	205.017532	-466.270020	-406.004089
5803.682247	202.445938	-462.003510	-392.386322
5803.685543	200.108124	-457.561676	-379.236115
5803.688893	197.010513	-452.827576	-366.202789
5803.692206	194.555817	-447.275299	-355.390411
5803.695543	192.860901	-442.365875	-343.993561
5803.698877	189.821747	-437.456451	-332.538300
5803.702211	188.068375	-432.605499	-321.842773
5803.705533	185.730560	-427.579193	-310.329041
5803.708874	183.451202	-422.143799	-301.094696
5803.712206	181.405624	-417.526611	-290.691406
5803.715542	179.710693	-412.500305	-281.749268
5803.718873	177.606674	-407.707794	-272.222687
5803.722205	175.561066	-402.739929	-262.754517
5803.725539	173.866165	-397.713623	-254.455292
5803.728870	171.879013	-392.804199	-246.448288
5803.732205	170.300995	-387.076569	-238.207489
5803.735532	168.430740	-382.284058	-228.564011
5803.738876	167.086502	-377.199310	-220.615433
5803.742207	165.566925	-371.471649	-212.666870
5803.745534	163.638229	-366.503815	-206.062546
5803.748911	162.001755	-361.302185	-197.587967
5803.752205	160.774399	-355.808289	-190.808304
5803.755536	158.904144	-351.717133	-183.561081
5803.758868	157.267685	-346.164825	-176.313858
5803.762231	155.981888	-341.430756	-168.949738
5803.765539	154.345413	-336.404449	-161.936295
5803.768866	152.650497	-331.845703	-156.851547
5803.772203	150.312683	-326.351837	-151.065460
5803.775538	148.617767	-321.500885	-144.344238
5803.778868	147.331970	-317.818817	-137.623032
5803.782196	144.701935	-313.201630	-132.947403
5803.785538	143.649918	-309.168915	-129.265335
5803.788870	141.312103	-305.136200	-124.414383
5803.792223	140.376968	-300.811249	-120.966110
5803.795533	138.156036	-297.713623	-115.706024
5803.798867	136.578018	-294.206909	-111.790184
5803.802195	134.883102	-291.226196	-108.692581
5803.805539	133.129745	-287.602600	-104.776733
5803.810233	128.863235	-282.400940	-99.458214
5803.813530	128.220337	-279.537109	-96.828171
5803.816914	126.992989	-277.316193	-94.841034
5803.819855	125.181190	-274.569275	-92.035652
5803.823549	123.953835	-272.348358	-90.165405
5803.826927	122.551147	-270.302765	-87.067795
5803.829811	122.258919	-268.257141	-85.139099
5803.833106	120.680893	-265.627136	-84.613091
5803.836802	119.687325	-263.581512	-81.632378
5803.840178	119.102859	-261.945068	-80.171249
5803.843126	117.817070	-259.548798	-78.184105
5803.846428	117.174171	-257.444763	-77.424316
5803.849733	116.472832	-256.042084	-75.378723
5803.853154	115.479256	-253.762695	-74.092926
5803.856443	114.602577	-252.360016	-72.339569
5803.859715	113.550560	-250.080658	-71.170662
5803.863049	112.966110	-247.918182	-68.891296
5803.866373	112.556984	-246.398590	-66.962593
5803.869734	111.914085	-243.359421	-65.326126
5803.873078	111.563416	-242.073639	-63.689655
5803.876441	111.271187	-240.203384	-61.936295
5803.879835	110.394508	-238.742264	-59.773819
5803.883161	109.693169	-236.462875	-59.130920
5803.886402	109.400940	-234.475739	-57.260666
5803.889702	109.050262	-232.430145	-54.513737
5803.893040	107.998245	-229.975449	-52.760376
5803.896409	107.764465	-228.514313	-51.416130
5803.899727	106.829338	-226.819397	-49.428989
5803.903111	106.478668	-225.066040	-48.260082
5803.906465	106.186447	-223.546463	-47.324959
5803.909761	105.601990	-222.669769	-45.746933
5803.913038	104.842201	-221.267090	-44.636471
5803.916366	104.725311	-219.572159	-43.642899
5803.919703	104.140854	-218.344833	-42.590881
5803.923059	103.439514	-217.292801	-42.181767
5803.926403	103.381065	-216.357681	-41.421974
5803.929803	102.095268	-215.130325	-40.837524
5803.933105	102.329048	-215.247223	-40.136177
5803.936367	101.452370	-213.902969	-39.843952
5803.939691	101.335480	-213.435410	-38.733490
5803.943029	100.634140	-213.318512	-38.090591
5803.945947	100.634140	-212.441833	-38.499710
5803.949310	100.575691	-212.383392	-38.499710
5803.952608	100.341904	-212.617172	-38.616600
5803.955970	99.932793	-211.857391	-38.499710
5803.959296	100.166573	-211.915833	-39.084160
5803.962626	100.108124	-212.324951	-38.207481
5803.965938	99.815903	-211.857391	-38.908825
5803.969281	99.815903	-212.032730	-38.207481
5803.972618	99.640564	-212.149612	-38.558151
5803.975938	99.523674	-212.441833	-38.967270
5803.979273	99.874344	-212.441833	-38.967270
5803.982605	99.815903	-212.558731	-39.493279
5803.985936	99.815903	-212.734070	-39.259499
5803.989274	100.108124	-212.734070	-39.201050
5803.992638	100.692581	-212.734070	-39.843952
5803.995957	100.692581	-213.376968	-39.727062
5803.999302	101.277031	-212.266510	-39.785507
5804.002599	101.043251	-213.026306	-39.259499
5804.005938	101.510811	-213.084732	-39.434837
5804.009295	101.919937	-212.734070	-39.025719
5804.012603	101.919937	-213.318512	-39.668617
5804.015939	102.738167	-213.318512	-39.668617
5804.019262	103.264175	-213.786087	-40.253071
5804.022617	103.497955	-213.552292	-40.136177
5804.025977	103.614853	-213.201630	-40.194626
5804.029291	104.199303	-213.318512	-40.779076
5804.032622	104.783760	-213.961426	-40.779076
5804.036001	104.900650	-214.078308	-40.486851
5804.039269	105.368210	-215.071884	-40.428406
5804.042601	106.011108	-215.364120	-40.019287
5804.045934	105.426651	-216.123886	-40.837524
5804.048835	106.186447	-216.065460	-40.954414
5804.052175	106.770897	-217.351242	-41.305084
5804.055511	107.296906	-217.585037	-40.895969
5804.058842	107.180016	-218.520172	-41.889538
5804.062167	107.413795	-220.039734	-43.058449
5804.065504	108.524261	-221.267090	-43.584454
5804.068839	108.758041	-221.968445	-44.461136
5804.072166	108.348923	-223.780228	-45.220924
5804.075504	109.868500	-224.247787	-46.798950
5804.078849	110.628288	-226.644058	-48.435417
5804.082166	110.978966	-228.105194	-49.779663
5804.085506	111.154297	-230.033905	-51.240795
5804.088837	112.089424	-231.611923	-52.234367
5804.092166	112.732330	-232.897720	-53.637054
5804.095508	114.193451	-234.943298	-56.500877
5804.098831	114.777916	-237.222672	-58.312683
5804.102169	114.836365	-239.443588	-60.708942
5804.105501	116.297485	-241.138504	-62.812977
5804.108868	117.583290	-242.950317	-64.507889
5804.112168	118.284630	-245.171234	-65.735245
5804.115499	119.102859	-246.807724	-67.371712
5804.118836	120.154884	-249.262405	-69.300407
5804.122189	121.557571	-251.191116	-71.287552
5804.125498	122.901810	-253.236710	-73.099358
5804.128831	124.596725	-255.223846	-75.670952
5804.132162	126.116318	-256.977203	-77.424316
5804.135499	127.869667	-258.730560	-79.586792
5804.138856	128.687912	-260.893036	-81.223267
5804.142165	130.499710	-262.997101	-82.859734
5804.145493	131.668610	-264.867340	-85.957336
5804.148825	133.714203	-267.029816	-88.119812
5804.152162	135.233780	-268.783173	-91.334305
5804.155496	136.578018	-271.471649	-93.496780
5804.158826	138.389832	-273.692566	-95.717712
5804.162159	139.792511	-275.738190	-97.704849
5804.165503	141.370544	-278.192871	-100.510223
5804.168824	142.890121	-280.472260	-102.964935
5804.172161	144.468155	-283.219177	-105.536530
5804.175526	146.396835	-285.440094	-108.283463
5804.178830	147.273529	-288.362366	-110.855057
5804.182178	148.851547	-291.635315	-114.829346
5804.185492	150.663361	-294.440704	-119.154297
5804.188826	151.715378	-296.895416	-121.550552
5804.192159	153.994736	-300.109894	-125.933960
5804.195494	155.105194	-302.973724	-129.382233
5804.198823	157.443008	-306.421997	-133.824081
5804.202159	159.254822	-310.922272	-139.668625
5804.205490	160.482178	-314.136749	-144.110458
5804.208818	162.177094	-317.701935	-148.318527
5804.212157	163.872009	-321.968445	-153.578613
5804.215492	166.151367	-326.176514	-159.130920
5804.218841	167.378723	-329.800110	-164.741669
5804.222162	169.658096	-333.891296	-170.352432
5804.225485	171.703690	-337.865601	-177.424316
5804.228815	173.807724	-343.067200	-184.437759
5804.232175	175.911758	-347.158417	-190.983643
5804.235491	178.483353	-351.132660	-198.990646
5804.238825	180.996490	-355.457642	-205.419647
5804.242152	182.983643	-360.016357	-213.017548
5804.245488	186.198135	-364.049103	-221.316772
5804.248823	188.419052	-368.783173	-229.908249
5804.252153	191.458221	-373.575714	-238.265930
5804.255486	194.029816	-378.835754	-246.272949
5804.258817	197.653427	-382.634735	-255.507324
5804.262161	200.166580	-387.368805	-264.858582
5804.265482	203.205734	-391.518433	-273.800690
5804.268819	206.770905	-395.551147	-283.327271
5804.272150	209.576279	-400.285217	-292.795441
5804.275484	212.966095	-405.019287	-301.854492
5804.278819	216.531265	-408.935150	-312.257751
5804.282150	219.278214	-413.260101	-322.777924
5804.285479	223.369370	-418.169495	-334.116302
5804.288812	226.525421	-421.559326	-345.045593
5804.292205	229.739914	-426.059631	-355.624207
5804.295479	233.071320	-430.150787	-366.962585
5804.298812	236.052032	-434.066620	-379.060791
5804.302155	239.734070	-438.274719	-390.925201
5804.305505	243.007004	-442.833405	-404.016937
5804.308813	246.046173	-446.515503	-416.582703
5804.312152	249.143784	-450.898865	-430.083588
5804.315479	252.124496	-455.457642	-445.279388
5804.318815	254.520737	-459.724121	-459.773834
5804.322145	257.559906	-464.049103	-474.852692
5804.325485	260.248383	-468.257172	-491.158966
5804.328809	263.521332	-471.822357	-506.997681
5804.332145	265.800690	-476.556396	-524.765015
5804.335501	268.313843	-481.056671	-543.935120
5804.338806	270.651642	-484.388123	-562.403870
5804.342142	272.404999	-488.713013	-581.223206
5804.345480	275.327271	-492.219788	-601.328430
5804.348823	277.080658	-496.836945	-621.667419
5804.352140	279.769135	-501.454102	-642.941528
5804.355472	282.048492	-503.908813	-665.384521
5804.358810	283.626526	-506.480438	-687.652222
5804.362197	285.847443	-509.578033	-711.322632
5804.365477	287.542358	-511.798950	-735.109863
5804.368809	289.178833	-512.909363	-759.481567
5804.372138	291.750427	-514.604309	-782.976624
5804.375468	293.620667	-515.481018	-807.582092
5804.378805	294.731140	-515.597900	-831.427795
5804.382134	297.185852	-515.422546	-856.383972
5804.385472	298.296295	-514.896545	-881.866150
5804.388803	300.108124	-513.610779	-907.289856
5804.392160	301.861481	-512.208069	-931.895325
5804.395469	302.329041	-509.052032	-957.260681
5804.398805	304.023956	-506.947998	-981.340088
5804.402139	305.309753	-502.915283	-1005.828735
5804.405470	306.420197	-499.408539	-1029.206909
5804.408807	306.712433	-493.564026	-1053.286377
5804.412134	307.764465	-488.829956	-1077.482788
5804.415466	307.296906	-482.926941	-1100.802490
5804.418805	307.647552	-477.549988	-1124.122192
5804.422148	307.413788	-470.419647	-1147.383423
5804.425469	306.420197	-463.347778	-1170.235596
5804.428809	305.601990	-456.042084	-1190.808350
5804.432139	304.257721	-448.736420	-1212.199341
5804.435467	303.088837	-439.385162	-1234.350098
5804.438803	300.517212	-430.267700	-1254.806030
5804.442134	297.770294	-421.442444	-1274.385132
5804.445469	294.848022	-410.688477	-1294.256592
5804.448795	291.341309	-400.402100	-1313.485229
5804.452153	287.074799	-388.946808	-1332.772095
5804.455468	281.990051	-376.497955	-1350.597900
5804.458800	276.905304	-363.581543	-1367.722412
5804.462128	271.411438	-350.723572	-1385.548218
5804.465467	264.748688	-337.222687	-1401.445435
5804.468797	257.910553	-322.962006	-1416.524292
5804.472133	251.014038	-307.006439	-1430.668091
5804.475462	243.357697	-290.933960	-1444.578125
5804.478799	235.292236	-274.686157	-1455.741089
5804.482129	226.759216	-257.269440	-1466.436646
5804.485462	217.641724	-239.560486	-1477.541260
5804.488868	208.290466	-220.799515	-1485.197632
5804.492127	199.406784	-200.986557	-1491.509644
5804.495480	189.178848	-180.589111	-1496.828247
5804.498796	179.476913	-159.431900	-1501.211548
5804.502126	169.190536	-138.683807	-1503.607910
5804.505460	159.430161	-116.474579	-1505.419678
5804.508799	149.260666	-94.557571	-1505.419678
5804.512127	139.324951	-71.705437	-1503.841675
5804.515457	129.739914	-49.437756	-1501.153198
5804.518787	120.447113	-27.228523	-1496.769775
5804.522128	111.212746	-3.324372	-1491.509644
5804.525455	102.095268	20.521330	-1484.262451
5804.528789	92.919350	43.548805	-1477.541260
5804.532124	83.977203	65.524254	-1467.780884
5804.535459	75.502632	88.025711	-1458.429687
5804.538806	66.385155	111.170082	-1447.792603
5804.542126	58.027470	132.736420	-1437.272339
5804.545457	49.786674	154.828766	-1425.174194
5804.548791	41.838104	175.869095	-1412.257812
5804.552117	33.714203	196.792526	-1399.575195
5804.555500	26.291641	216.547058	-1385.197632
5804.558790	18.167738	236.126251	-1369.767944
5804.562120	8.465810	254.653427	-1354.630737
5804.565453	0.809468	273.589722	-1338.850464
5804.568786	-6.788426	291.824646	-1324.180664
5804.572119	-14.795442	309.241364	-1307.640625
5804.575490	-22.451782	326.424286	-1290.691406
5804.578785	-31.160141	343.665680	-1273.450073
5804.582122	-38.056690	359.445923	-1257.026855
5804.585458	-46.355934	375.459961	-1239.727173
5804.588790	-55.414967	390.188171	-1221.492065
5804.592119	-62.136181	404.156647	-1202.848022
